ECG,PPG
0.7254772105499813,0.4359707736779858
0.6705965828174644,0.4320642255267494
0.60980855901558,0.42815044302708477
0.5509794644802216,0.42424389487584835
0.4999860870109672,0.42130674941399276
0.45490010561108013,0.41837683830056543
0.4098141242111931,0.41740020126275634
0.39019422327614384,0.41642356422494725
0.374522789143936,0.41544692718713816
0.3588207467419387,0.414470290149329
0.3549028882088867,0.4125097817252826
0.34902610040930876,0.4115331446874735
0.3549028882088867,0.40957987061185525
0.3646975345415166,0.40762659653623706
0.3549028882088867,0.40664995949842797
0.3646975345415166,0.40664995949842797
0.374522789143936,0.40664995949842797
0.37057432234109455,0.40762659653623706
0.39019422327614384,0.40860323357404615
0.39019422327614384,0.40860323357404615
0.39019422327614384,0.4105565076496644
0.3941120818091958,0.4115331446874735
0.4039067281418257,0.4115331446874735
0.4039067281418257,0.4105565076496644
0.3999888696087737,0.40860323357404615
0.3941120818091958,0.40664995949842797
0.3843174354765659,0.40468945107438153
0.3843174354765659,0.40468945107438153
0.38039957694351395,0.4056660881121906
0.39019422327614384,0.40860323357404615
0.4039067281418257,0.4125097817252826
0.419608770543823,0.4203301123761837
0.419608770543823,0.4320642255267494
0.42548555834340096,0.4525880720175971
0.42548555834340096,0.47409578989468215
0.3999888696087737,0.49560350777176715
0.39019422327614384,0.5180806283382331
0.4039067281418257,0.5347051610262725
0.419608770543823,0.5503385879796465
0.42940341687645295,0.5640259752058304
0.4352802046760309,0.5757600883563961
0.42940341687645295,0.5845570560451063
0.4156909120107711,0.5923773866960075
0.4098141242111931,0.5962839348472438
0.4156909120107711,0.5992210803090994
0.419608770543823,0.6011743543847177
0.4039067281418257,0.6021509914225267
0.34902610040930876,0.6031276284603359
0.654894540415467,0.6031276284603359
1.503906727835743,0.6011743543847177
1.503906727835743,0.598237208922862
1.503906727835743,0.5933540237338165
0.6607713282150449,0.5855336930829155
0.42940341687645295,0.5777133624320144
0.419608770543823,0.5718463058567315
0.4039067281418257,0.5620727011302122
0.3843174354765659,0.5474086768662192
0.34902610040930876,0.5337212896400352
0.3392008458068894,0.5210177738000886
0.3549028882088867,0.5092836606495229
0.38039957694351395,0.5024472013848591
0.38039957694351395,0.4975567818473854
0.39019422327614384,0.49560350777176715
0.4039067281418257,0.49462687073395806
0.3941120818091958,0.4936429993477207
0.4039067281418257,0.4936429993477207
0.42940341687645295,0.4936429993477207
0.4352802046760309,0.49168972527210253
0.4392286714788723,0.4887598141586752
0.4607768934106581,0.48680654008305696
0.48431465287875936,0.48386939462120143
0.5156881294129645,0.4809394835077741
0.5509794644802216,0.4780023380459186
0.605890700482528,0.47507242693249124
0.654894540415467,0.4711658787812548
0.6960932715520916,0.46822873331939924
0.7254772105499813,0.4633455481303537
0.7411792529519786,0.45845512859287996
0.7509738992846084,0.4535647090554062
0.7411792529519786,0.4486815238663607
0.7156825642173513,0.4437911043288869
0.6647197950178864,0.4389079191398414
0.605890700482528,0.4349941366401767
0.5451026766806437,0.4310875884889403
0.4745200065461294,0.42619716895146653
0.42940341687645295,0.4232672578380392
0.3843174354765659,0.4203301123761837
0.3451082418762568,0.41837683830056543
0.3196115531416296,0.41642356422494725
0.3098169068089997,0.414470290149329
0.3098169068089997,0.414470290149329
0.3098169068089997,0.4134864187630917
0.3039095107396323,0.4125097817252826
0.29411486440700235,0.4125097817252826
0.2999916522065803,0.4125097817252826
0.3294061994742595,0.4125097817252826
0.3294061994742595,0.4125097817252826
0.3235294116746816,0.4134864187630917
0.3392008458068894,0.41544692718713816
0.3294061994742595,0.41740020126275634
0.33528298727383743,0.4193534753383746
0.3392008458068894,0.4203301123761837
0.3392008458068894,0.42130674941399276
0.3392008458068894,0.42130674941399276
0.3392008458068894,0.4203301123761837
0.33528298727383743,0.4193534753383746
0.3294061994742595,0.41642356422494725
0.3196115531416296,0.414470290149329
0.3294061994742595,0.4134864187630917
0.33528298727383743,0.4134864187630917
0.3392008458068894,0.41642356422494725
0.3549028882088867,0.42130674941399276
0.3646975345415166,0.42815044302708477
0.3451082418762568,0.43694741071579496
0.33528298727383743,0.45063479794197886
0.31373476534205164,0.46822873331939924
0.3098169068089997,0.48680654008305696
0.31373476534205164,0.5053771124982864
0.3294061994742595,0.523947684913516
0.3196115531416296,0.5415416202909363
0.33528298727383743,0.5581589186305476
0.3098169068089997,0.5718463058567315
0.3098169068089997,0.5816199105832508
0.3039095107396323,0.5874869671585337
0.3098169068089997,0.590416878271961
0.31373476534205164,0.590416878271961
0.2647003171393232,0.5914007496581983
0.45490010561108013,0.590416878271961
1.2078329341622147,0.5894402412341518
1.503906727835743,0.5865103301207246
1.503906727835743,0.5826037819694881
0.8255050362219641,0.5777133624320144
0.33528298727383743,0.5708696688189224
0.31373476534205164,0.5630493381680214
0.33528298727383743,0.5522990964036929
0.31373476534205164,0.5405649832531272
0.3098169068089997,0.5288381044509897
0.3039095107396323,0.517103991300424
0.3098169068089997,0.5073303865739046
0.31373476534205164,0.4975567818473854
0.3098169068089997,0.48778317712086605
0.33528298727383743,0.479962846469965
0.33528298727383743,0.47409578989468215
0.34902610040930876,0.4701892417434457
0.3646975345415166,0.46822873331939924
0.374522789143936,0.46725209628159015
0.4039067281418257,0.46627545924378105
0.42548555834340096,0.4643221851681628
0.44902331781150223,0.4604084026684982
0.48039679434570737,0.4565018545172618
0.5156881294129645,0.4525880720175971
0.5705993654152709,0.4477048868285516
0.60980855901558,0.4437911043288869
0.6764733706170423,0.4389079191398414
0.7313846066193487,0.4330408625645585
0.7764705880192357,0.4301109514511312
0.800008347487337,0.4271738059892756
0.800008347487337,0.42522053191365744
0.800008347487337,0.4222906208002301
0.7764705880192357,0.4193534753383746
0.7156825642173513,0.41740020126275634
0.6509766818824151,0.41544692718713816
0.5843118702809528,0.4134864187630917
0.5058934830803345,0.4125097817252826
0.4352802046760309,0.4115331446874735
0.37057432234109455,0.4115331446874735
0.3294061994742595,0.4115331446874735
0.2901970058739504,0.4125097817252826
0.25882352933974523,0.4134864187630917
0.23920362840469597,0.4134864187630917
0.22940898207206606,0.414470290149329
0.23920362840469597,0.41544692718713816
0.2549056708066933,0.41642356422494725
0.2647003171393232,0.41642356422494725
0.28432021807437247,0.41740020126275634
0.3039095107396323,0.41740020126275634
0.3294061994742595,0.41837683830056543
0.3451082418762568,0.41837683830056543
0.3549028882088867,0.41837683830056543
0.37057432234109455,0.4193534753383746
0.38039957694351395,0.4203301123761837
0.3843174354765659,0.4203301123761837
0.3941120818091958,0.42130674941399276
0.3843174354765659,0.4203301123761837
0.3843174354765659,0.41837683830056543
0.38039957694351395,0.41642356422494725
0.374522789143936,0.41544692718713816
0.37057432234109455,0.4134864187630917
0.3646975345415166,0.4115331446874735
0.3588207467419387,0.4105565076496644
0.374522789143936,0.4115331446874735
0.3843174354765659,0.414470290149329
0.38039957694351395,0.4193534753383746
0.3588207467419387,0.4271738059892756
0.34902610040930876,0.4389079191398414
0.31373476534205164,0.4535647090554062
0.3098169068089997,0.4721425158190639
0.3196115531416296,0.4897364511964843
0.33528298727383743,0.5083070236117138
0.3392008458068894,0.523947684913516
0.33528298727383743,0.5366584351018908
0.33528298727383743,0.5483853139040282
0.3235294116746816,0.5591427900167849
0.3294061994742595,0.5679397577054951
0.33528298727383743,0.5737995799323498
0.3451082418762568,0.5777133624320144
0.2999916522065803,0.5796666365076326
0.25882352933974523,0.5796666365076326
0.7156825642173513,0.5786899994698235
1.503906727835743,0.5767367253942053
1.503906727835743,0.5737995799323498
1.3784434299687118,0.5698930317811133
0.5196059879460164,0.5640259752058304
0.4039067281418257,0.5552290075171202
0.4098141242111931,0.5444787657527919
0.37057432234109455,0.5327446526022261
0.3549028882088867,0.5210177738000886
0.33528298727383743,0.5092836606495229
0.3549028882088867,0.49951005592300357
0.37057432234109455,0.49168972527210253
0.374522789143936,0.4858226686968196
0.3646975345415166,0.479962846469965
0.38039957694351395,0.47409578989468215
0.38039957694351395,0.4692053703572084
0.38039957694351395,0.46529882220597196
0.3999888696087737,0.46236891109254463
0.419608770543823,0.4604084026684982
0.419608770543823,0.45747849155507087
0.4607768934106581,0.45454858044164353
0.4745200065461294,0.45063479794197886
0.5058934830803345,0.44574437840450515
0.5254827757455944,0.4408611932154596
0.5901886580805307,0.43694741071579496
0.6196032053482099,0.4320642255267494
0.6764733706170423,0.42815044302708477
0.7215593520169293,0.42522053191365744
0.7509738992846084,0.4232672578380392
0.7764705880192357,0.42130674941399276
0.7705938002196577,0.4193534753383746
0.7705938002196577,0.41740020126275634
0.7450971114850305,0.41544692718713816
0.6901858754827241,0.4134864187630917
0.6293978516808398,0.4125097817252826
0.5646919693459035,0.4105565076496644
0.5058934830803345,0.40957987061185525
0.45490010561108013,0.40860323357404615
0.4156909120107711,0.40762659653623706
0.39019422327614384,0.40762659653623706
0.3646975345415166,0.40762659653623706
0.3451082418762568,0.40762659653623706
0.33528298727383743,0.40762659653623706
0.3294061994742595,0.40860323357404615
0.33528298727383743,0.40860323357404615
0.3235294116746816,0.40762659653623706
0.3392008458068894,0.40762659653623706
0.3588207467419387,0.40762659653623706
0.3646975345415166,0.40860323357404615
0.374522789143936,0.40860323357404615
0.3646975345415166,0.4105565076496644
0.38039957694351395,0.4115331446874735
0.3843174354765659,0.4115331446874735
0.3941120818091958,0.4125097817252826
0.4039067281418257,0.4125097817252826
0.38039957694351395,0.4105565076496644
0.3941120818091958,0.40860323357404615
0.3941120818091958,0.40664995949842797
0.38039957694351395,0.40468945107438153
0.374522789143936,0.40468945107438153
0.37057432234109455,0.4056660881121906
0.374522789143936,0.40860323357404615
0.39019422327614384,0.414470290149329
0.3999888696087737,0.42424389487584835
0.3941120818091958,0.43792404775360405
0.39019422327614384,0.4565018545172618
0.38039957694351395,0.47507242693249124
0.3549028882088867,0.4926663623099116
0.3196115531416296,0.5122208061113784
0.3451082418762568,0.5307913785266078
0.3588207467419387,0.5493619509418374
0.374522789143936,0.5650026122436396
0.37057432234109455,0.5786899994698235
0.374522789143936,0.5894402412341518
0.3392008458068894,0.598237208922862
0.34902610040930876,0.604104265498145
0.3392008458068894,0.6080180479978096
0.34902610040930876,0.6099713220734279
0.3549028882088867,0.6099713220734279
0.26861817567237517,0.6099713220734279
0.44902331781150223,0.6089946850356187
1.1764594576280094,0.6089946850356187
1.503906727835743,0.6060575395737632
1.503906727835743,0.6011743543847177
0.8156797816195448,0.5943306607716257
0.45490010561108013,0.5845570560451063
0.42940341687645295,0.5747834513185871
0.3999888696087737,0.5630493381680214
0.3646975345415166,0.5513224593658839
0.34902610040930876,0.539588346215318
0.3392008458068894,0.5288381044509897
0.34902610040930876,0.5210177738000886
0.37057432234109455,0.5131974431491875
0.3588207467419387,0.5063537495360956
0.38039957694351395,0.5024472013848591
0.3941120818091958,0.4985334188851945
0.4039067281418257,0.49658014480957624
0.4156909120107711,0.49462687073395806
0.419608770543823,0.49168972527210253
0.42940341687645295,0.4887598141586752
0.44902331781150223,0.4858226686968196
0.4706021480130775,0.4809394835077741
0.49019144067833725,0.47604906397030033
0.5196059879460164,0.4721425158190639
0.5646919693459035,0.46822873331939924
0.6000139126829501,0.46529882220597196
0.6450998940828371,0.46236891109254463
0.6960932715520916,0.4604084026684982
0.7450971114850305,0.45845512859287996
0.7764705880192357,0.4565018545172618
0.796090488954285,0.4535647090554062
0.796090488954285,0.44965816090416977
0.7803884465522877,0.44574437840450515
0.7411792529519786,0.44183783025326867
0.7000111300851435,0.43792404775360405
0.6509766818824151,0.4330408625645585
0.5843118702809528,0.42912708006489386
0.5254827757455944,0.42424389487584835
0.48039679434570737,0.41837683830056543
0.45490010561108013,0.414470290149329
0.42940341687645295,0.4115331446874735
0.4156909120107711,0.40957987061185525
0.3999888696087737,0.40860323357404615
0.39019422327614384,0.40957987061185525
0.39019422327614384,0.40957987061185525
0.4039067281418257,0.40957987061185525
0.4156909120107711,0.4105565076496644
0.4098141242111931,0.4105565076496644
0.419608770543823,0.4105565076496644
0.42548555834340096,0.4105565076496644
0.419608770543823,0.4105565076496644
0.42548555834340096,0.4105565076496644
0.4156909120107711,0.4105565076496644
0.42548555834340096,0.4115331446874735
0.42548555834340096,0.4105565076496644
0.4156909120107711,0.4105565076496644
0.4098141242111931,0.4105565076496644
0.4039067281418257,0.40957987061185525
0.3941120818091958,0.40957987061185525
0.4039067281418257,0.40957987061185525
0.3999888696087737,0.40957987061185525
0.38039957694351395,0.4105565076496644
0.4039067281418257,0.4125097817252826
0.4098141242111931,0.41642356422494725
0.4039067281418257,0.42522053191365744
0.4156909120107711,0.43792404775360405
0.3941120818091958,0.4555252174794526
0.374522789143936,0.47604906397030033
0.3646975345415166,0.49658014480957624
0.3588207467419387,0.5180806283382331
0.3588207467419387,0.5376350721396999
0.3646975345415166,0.5552290075171202
0.3549028882088867,0.5698930317811133
0.3588207467419387,0.5806432735454417
0.34902610040930876,0.5865103301207246
0.3392008458068894,0.5923773866960075
0.33528298727383743,0.597260571885053
0.33528298727383743,0.5992210803090994
0.3451082418762568,0.6001977173469085
0.27449496347195307,0.6001977173469085
0.42940341687645295,0.598237208922862
1.0921642826278133,0.5943306607716257
1.503906727835743,0.5894402412341518
1.503906727835743,0.5845570560451063
0.8960877063564784,0.5767367253942053
0.3588207467419387,0.566963120667686
0.3392008458068894,0.5562056445549294
0.3549028882088867,0.545455402790601
0.33528298727383743,0.531768015564417
0.3098169068089997,0.517103991300424
0.31373476534205164,0.5034238384226682
0.3098169068089997,0.49168972527210253
0.3196115531416296,0.4819161205455832
0.33528298727383743,0.47604906397030033
0.3294061994742595,0.4721425158190639
0.3451082418762568,0.4701892417434457
0.3549028882088867,0.4692053703572084
0.3588207467419387,0.46725209628159015
0.37057432234109455,0.46627545924378105
0.374522789143936,0.46529882220597196
0.39019422327614384,0.4633455481303537
0.419608770543823,0.4613850397063073
0.44510545927845024,0.45943176563068905
0.48039679434570737,0.4555252174794526
0.5294006342786464,0.4525880720175971
0.5705993654152709,0.44965816090416977
0.6196032053482099,0.44574437840450515
0.6862680169496722,0.4408611932154596
0.7254772105499813,0.4349941366401767
0.7411792529519786,0.4301109514511312
0.7450971114850305,0.42522053191365744
0.7548917578176605,0.42130674941399276
0.7254772105499813,0.41740020126275634
0.6862680169496722,0.414470290149329
0.615685346815158,0.4125097817252826
0.5646919693459035,0.4105565076496644
0.49410929921138924,0.4105565076496644
0.419608770543823,0.40860323357404615
0.37057432234109455,0.40664995949842797
0.34902610040930876,0.4056660881121906
0.3294061994742595,0.40468945107438153
0.2999916522065803,0.4037128140365724
0.3039095107396323,0.4027361769987633
0.28432021807437247,0.4017595399609542
0.2901970058739504,0.4017595399609542
0.28432021807437247,0.40078290292314506
0.2999916522065803,0.3988296288475269
0.3098169068089997,0.39686912042348044
0.3039095107396323,0.3939392093100531
0.3294061994742595,0.39198593523443487
0.33528298727383743,0.3900326611588167
0.33528298727383743,0.38904878977257934
0.33528298727383743,0.38807215273477025
0.3392008458068894,0.38807215273477025
0.3549028882088867,0.38807215273477025
0.3549028882088867,0.38807215273477025
0.3549028882088867,0.38709551569696116
0.3549028882088867,0.3851422416213429
0.34902610040930876,0.3831889675457247
0.3392008458068894,0.3812284591216783
0.3451082418762568,0.37927518504606006
0.34902610040930876,0.37829854800825097
0.3549028882088867,0.38025182208386915
0.3646975345415166,0.3822123305079156
0.37057432234109455,0.38807215273477025
0.37057432234109455,0.39686912042348044
0.374522789143936,0.40860323357404615
0.33528298727383743,0.42522053191365744
0.3196115531416296,0.4408611932154596
0.33528298727383743,0.45747849155507087
0.3392008458068894,0.4770257010081094
0.3451082418762568,0.49560350777176715
0.3235294116746816,0.5131974431491875
0.3235294116746816,0.5298147414887988
0.3039095107396323,0.5435021287149827
0.2999916522065803,0.5542523704793112
0.3098169068089997,0.5640259752058304
0.3098169068089997,0.5708696688189224
0.2901970058739504,0.5737995799323498
0.2549056708066933,0.5757600883563961
0.6509766818824151,0.5767367253942053
1.503906727835743,0.5767367253942053
1.503906727835743,0.5767367253942053
1.462738604968908,0.5737995799323498
0.5058934830803345,0.5698930317811133
0.3294061994742595,0.5620727011302122
0.3588207467419387,0.5513224593658839
0.3646975345415166,0.539588346215318
0.37057432234109455,0.5268848303753715
0.3588207467419387,0.5151507172248058
0.33528298727383743,0.5044004754604773
0.33528298727383743,0.49658014480957624
0.34902610040930876,0.4897364511964843
0.37057432234109455,0.4848460316590105
0.38039957694351395,0.479962846469965
0.3999888696087737,0.4770257010081094
0.3941120818091958,0.47507242693249124
0.4039067281418257,0.473119152856873
0.419608770543823,0.4701892417434457
0.42548555834340096,0.4692053703572084
0.42940341687645295,0.46725209628159015
0.45490010561108013,0.46529882220597196
0.49410929921138924,0.4633455481303537
0.5294006342786464,0.4604084026684982
0.5745172239483228,0.45845512859287996
0.6353052477502072,0.4555252174794526
0.6960932715520916,0.4525880720175971
0.7607991538870279,0.4486815238663607
0.7901830928849176,0.444767741366696
0.8255050362219641,0.4398845561776505
0.8117619230864929,0.4359707736779858
0.796090488954285,0.4320642255267494
0.7607991538870279,0.4271738059892756
0.7058879178847215,0.4222906208002301
0.6353052477502072,0.41740020126275634
0.5803940117479008,0.414470290149329
0.5058934830803345,0.4105565076496644
0.4607768934106581,0.40762659653623706
0.4039067281418257,0.40664995949842797
0.38039957694351395,0.4056660881121906
0.3549028882088867,0.40468945107438153
0.3451082418762568,0.40468945107438153
0.33528298727383743,0.4037128140365724
0.3294061994742595,0.4017595399609542
0.33528298727383743,0.39980626588533597
0.33528298727383743,0.39980626588533597
0.3451082418762568,0.3988296288475269
0.3549028882088867,0.3988296288475269
0.3588207467419387,0.3988296288475269
0.3549028882088867,0.3988296288475269
0.38039957694351395,0.3988296288475269
0.38039957694351395,0.39980626588533597
0.39019422327614384,0.3978529918097178
0.4039067281418257,0.39589248338567135
0.3941120818091958,0.3939392093100531
0.3999888696087737,0.39198593523443487
0.3941120818091958,0.38904878977257934
0.4039067281418257,0.386118878659152
0.39019422327614384,0.3831889675457247
0.38039957694351395,0.3812284591216783
0.3646975345415166,0.37927518504606006
0.3588207467419387,0.38025182208386915
0.38039957694351395,0.3822123305079156
0.3999888696087737,0.3851422416213429
0.4098141242111931,0.3910092981966258
0.3999888696087737,0.40078290292314506
0.4098141242111931,0.4134864187630917
0.3843174354765659,0.4301109514511312
0.3549028882088867,0.44965816090416977
0.34902610040930876,0.4711658787812548
0.3451082418762568,0.49168972527210253
0.374522789143936,0.5102675320357603
0.3646975345415166,0.5268848303753715
0.37057432234109455,0.5405649832531272
0.3588207467419387,0.5513224593658839
0.3451082418762568,0.5591427900167849
0.3392008458068894,0.5650026122436396
0.3392008458068894,0.5689163947433042
0.3392008458068894,0.5728229428945406
0.27449496347195307,0.5747834513185871
0.2647003171393232,0.5757600883563961
0.9411736877563655,0.5757600883563961
1.503906727835743,0.5747834513185871
1.503906727835743,0.5708696688189224
1.1058767874934952,0.5650026122436396
0.48039679434570737,0.5581589186305476
0.419608770543823,0.5483853139040282
0.3843174354765659,0.5376350721396999
0.3549028882088867,0.5288381044509897
0.3294061994742595,0.5200411367622795
0.3196115531416296,0.5092836606495229
0.3294061994742595,0.5004866929608127
0.34902610040930876,0.4936429993477207
0.3451082418762568,0.48778317712086605
0.3646975345415166,0.48289275758339234
0.374522789143936,0.4809394835077741
0.37057432234109455,0.479962846469965
0.38039957694351395,0.47898620943215586
0.39019422327614384,0.47898620943215586
0.4039067281418257,0.4770257010081094
0.419608770543823,0.47409578989468215
0.4392286714788723,0.4711658787812548
0.46469475194371007,0.46627545924378105
0.49019144067833725,0.4613850397063073
0.5392258888810657,0.4565018545172618
0.5803940117479008,0.451611434979788
0.6254799931477878,0.44672824979074244
0.6862680169496722,0.44183783025326867
0.7058879178847215,0.43694741071579496
0.7411792529519786,0.4330408625645585
0.7509738992846084,0.4301109514511312
0.7666759416866058,0.42619716895146653
0.7509738992846084,0.4232672578380392
0.7098057764177734,0.42130674941399276
0.654894540415467,0.4193534753383746
0.60980855901558,0.41642356422494725
0.5548973230132735,0.414470290149329
0.49410929921138924,0.4134864187630917
0.4392286714788723,0.4125097817252826
0.4039067281418257,0.4115331446874735
0.3941120818091958,0.4115331446874735
0.38039957694351395,0.4115331446874735
0.374522789143936,0.4115331446874735
0.3588207467419387,0.4115331446874735
0.37057432234109455,0.4115331446874735
0.3646975345415166,0.4105565076496644
0.37057432234109455,0.40957987061185525
0.3646975345415166,0.40957987061185525
0.38039957694351395,0.40957987061185525
0.3843174354765659,0.40957987061185525
0.39019422327614384,0.40957987061185525
0.3941120818091958,0.4105565076496644
0.3999888696087737,0.4105565076496644
0.3999888696087737,0.414470290149329
0.3941120818091958,0.4193534753383746
0.4098141242111931,0.42130674941399276
0.4098141242111931,0.4222906208002301
0.4039067281418257,0.4222906208002301
0.3999888696087737,0.4222906208002301
0.3941120818091958,0.4222906208002301
0.39019422327614384,0.4222906208002301
0.38039957694351395,0.4232672578380392
0.39019422327614384,0.42522053191365744
0.4098141242111931,0.4301109514511312
0.42940341687645295,0.4408611932154596
0.4392286714788723,0.4555252174794526
0.4352802046760309,0.47409578989468215
0.419608770543823,0.49560350777176715
0.3999888696087737,0.5180806283382331
0.4039067281418257,0.539588346215318
0.4156909120107711,0.5581589186305476
0.4392286714788723,0.5728229428945406
0.42940341687645295,0.5855336930829155
0.42940341687645295,0.5962839348472438
0.42548555834340096,0.605080902535954
0.419608770543823,0.6129012331868552
0.4156909120107711,0.6177916527243289
0.42548555834340096,0.6197449267999471
0.42940341687645295,0.6207215638377562
0.3646975345415166,0.6216982008755654
0.3549028882088867,0.6216982008755654
0.9921670652256199,0.6207215638377562
1.503906727835743,0.6177916527243289
1.503906727835743,0.6129012331868552
1.1470449103603302,0.6070414109600005
0.5098113416133866,0.5992210803090994
0.4352802046760309,0.5894402412341518
0.42548555834340096,0.5796666365076326
0.4039067281418257,0.5679397577054951
0.3843174354765659,0.5552290075171202
0.3646975345415166,0.5425254916771737
0.3588207467419387,0.5307913785266078
0.38039957694351395,0.5210177738000886
0.374522789143936,0.5131974431491875
0.3843174354765659,0.5073303865739046
0.39019422327614384,0.5024472013848591
0.3999888696087737,0.49951005592300357
0.4039067281418257,0.4985334188851945
0.419608770543823,0.49658014480957624
0.42940341687645295,0.49462687073395806
0.44510545927845024,0.4936429993477207
0.44902331781150223,0.49168972527210253
0.4745200065461294,0.48778317712086605
0.5098113416133866,0.48386939462120143
0.5353080303480138,0.479962846469965
0.5705993654152709,0.47604906397030033
0.6293978516808398,0.4721425158190639
0.6803912291500942,0.46822873331939924
0.7098057764177734,0.4643221851681628
0.7313846066193487,0.45943176563068905
0.7450971114850305,0.4555252174794526
0.7450971114850305,0.451611434979788
0.7254772105499813,0.4477048868285516
0.6960932715520916,0.4437911043288869
0.6411820355497851,0.4408611932154596
0.5803940117479008,0.4359707736779858
0.5196059879460164,0.4310875884889403
0.4607768934106581,0.4271738059892756
0.3999888696087737,0.42424389487584835
0.37057432234109455,0.42130674941399276
0.34902610040930876,0.41837683830056543
0.33528298727383743,0.41740020126275634
0.31373476534205164,0.414470290149329
0.3039095107396323,0.4125097817252826
0.3098169068089997,0.40957987061185525
0.3098169068089997,0.40762659653623706
0.3098169068089997,0.40664995949842797
0.3235294116746816,0.40664995949842797
0.33528298727383743,0.40664995949842797
0.3294061994742595,0.40860323357404615
0.33528298727383743,0.4105565076496644
0.3392008458068894,0.4125097817252826
0.34902610040930876,0.414470290149329
0.33528298727383743,0.41544692718713816
0.3451082418762568,0.41642356422494725
0.3451082418762568,0.41642356422494725
0.3294061994742595,0.41544692718713816
0.33528298727383743,0.414470290149329
0.33528298727383743,0.4134864187630917
0.3098169068089997,0.4115331446874735
0.3294061994742595,0.4105565076496644
0.3549028882088867,0.4105565076496644
0.34902610040930876,0.4115331446874735
0.3549028882088867,0.414470290149329
0.34902610040930876,0.4203301123761837
0.3549028882088867,0.42815044302708477
0.3196115531416296,0.4389079191398414
0.3098169068089997,0.4535647090554062
0.3098169068089997,0.4721425158190639
0.3098169068089997,0.49168972527210253
0.3294061994742595,0.5102675320357603
0.3196115531416296,0.5288381044509897
0.3196115531416296,0.5444787657527919
0.3294061994742595,0.5581589186305476
0.2999916522065803,0.5689163947433042
0.31373476534205164,0.5767367253942053
0.31373476534205164,0.5835804190072973
0.3235294116746816,0.5884636041963428
0.25882352933974523,0.5894402412341518
0.49410929921138924,0.590416878271961
1.3568645997671365,0.590416878271961
1.503906727835743,0.5894402412341518
1.503906727835743,0.5865103301207246
0.6803912291500942,0.5826037819694881
0.2999916522065803,0.5767367253942053
0.3294061994742595,0.5698930317811133
0.33528298727383743,0.560119427054594
0.31373476534205164,0.5483853139040282
0.28432021807437247,0.5366584351018908
0.28432021807437247,0.523947684913516
0.3098169068089997,0.5131974431491875
0.3196115531416296,0.5053771124982864
0.31373476534205164,0.4985334188851945
0.3196115531416296,0.4926663623099116
0.3294061994742595,0.48680654008305696
0.3392008458068894,0.48289275758339234
0.3549028882088867,0.4809394835077741
0.374522789143936,0.479962846469965
0.39019422327614384,0.47898620943215586
0.4039067281418257,0.4780023380459186
0.44510545927845024,0.47409578989468215
0.48039679434570737,0.4701892417434457
0.5098113416133866,0.46627545924378105
0.5509794644802216,0.46236891109254463
0.605890700482528,0.45747849155507087
0.6607713282150449,0.4525880720175971
0.7098057764177734,0.4486815238663607
0.7450971114850305,0.444767741366696
0.7666759416866058,0.4408611932154596
0.7705938002196577,0.4359707736779858
0.7548917578176605,0.4310875884889403
0.7254772105499813,0.4271738059892756
0.6705965828174644,0.42424389487584835
0.6000139126829501,0.42130674941399276
0.5196059879460164,0.41837683830056543
0.4392286714788723,0.41642356422494725
0.38039957694351395,0.414470290149329
0.3294061994742595,0.4134864187630917
0.29411486440700235,0.4125097817252826
0.27449496347195307,0.4125097817252826
0.2647003171393232,0.4134864187630917
0.2647003171393232,0.4134864187630917
0.26861817567237517,0.414470290149329
0.28432021807437247,0.41642356422494725
0.3039095107396323,0.41837683830056543
0.31373476534205164,0.4203301123761837
0.3196115531416296,0.4222906208002301
0.3294061994742595,0.4222906208002301
0.3451082418762568,0.4232672578380392
0.3392008458068894,0.4232672578380392
0.3646975345415166,0.4232672578380392
0.374522789143936,0.4232672578380392
0.374522789143936,0.42424389487584835
0.38039957694351395,0.4232672578380392
0.3646975345415166,0.4222906208002301
0.37057432234109455,0.4203301123761837
0.3451082418762568,0.41740020126275634
0.3392008458068894,0.41544692718713816
0.33528298727383743,0.4125097817252826
0.33528298727383743,0.40957987061185525
0.3392008458068894,0.40860323357404615
0.37057432234109455,0.40957987061185525
0.38039957694351395,0.4105565076496644
0.38039957694351395,0.4134864187630917
0.37057432234109455,0.4193534753383746
0.38039957694351395,0.4271738059892756
0.3392008458068894,0.43694741071579496
0.3235294116746816,0.45063479794197886
0.33528298727383743,0.46725209628159015
0.3392008458068894,0.4858226686968196
0.3549028882088867,0.5034238384226682
0.3588207467419387,0.5200411367622795
0.34902610040930876,0.5337212896400352
0.33528298727383743,0.5435021287149827
0.3294061994742595,0.553275733441502
0.3294061994742595,0.5620727011302122
0.3392008458068894,0.5698930317811133
0.3549028882088867,0.5757600883563961
0.26861817567237517,0.5796666365076326
0.5960654458801087,0.5826037819694881
1.503906727835743,0.5816199105832508
1.503906727835743,0.5806432735454417
1.503906727835743,0.5777133624320144
0.605890700482528,0.5708696688189224
0.4098141242111931,0.5620727011302122
0.3941120818091958,0.5522990964036929
0.374522789143936,0.5425254916771737
0.34902610040930876,0.5307913785266078
0.34902610040930876,0.5190644997244704
0.3451082418762568,0.5083070236117138
0.3588207467419387,0.4975567818473854
0.3549028882088867,0.4897364511964843
0.3646975345415166,0.48289275758339234
0.39019422327614384,0.4770257010081094
0.38039957694351395,0.4721425158190639
0.3843174354765659,0.4692053703572084
0.4039067281418257,0.46725209628159015
0.4098141242111931,0.46627545924378105
0.4039067281418257,0.46627545924378105
0.4607768934106581,0.4643221851681628
0.48431465287875936,0.46236891109254463
0.4999860870109672,0.45845512859287996
0.5294006342786464,0.45454858044164353
0.5705993654152709,0.44965816090416977
0.60980855901558,0.444767741366696
0.6803912291500942,0.4398845561776505
0.7156825642173513,0.4349941366401767
0.7509738992846084,0.4310875884889403
0.7666759416866058,0.4271738059892756
0.7764705880192357,0.42522053191365744
0.7666759416866058,0.4232672578380392
0.7353024651524006,0.4222906208002301
0.6901858754827241,0.4203301123761837
0.6293978516808398,0.41740020126275634
0.5705993654152709,0.41544692718713816
0.5098113416133866,0.414470290149329
0.46469475194371007,0.414470290149329
0.419608770543823,0.414470290149329
0.39019422327614384,0.414470290149329
0.3588207467419387,0.414470290149329
0.3549028882088867,0.41544692718713816
0.34902610040930876,0.41642356422494725
0.3392008458068894,0.41837683830056543
0.3451082418762568,0.4193534753383746
0.3549028882088867,0.4203301123761837
0.3646975345415166,0.42130674941399276
0.3588207467419387,0.4232672578380392
0.3588207467419387,0.4232672578380392
0.374522789143936,0.42424389487584835
0.38039957694351395,0.42424389487584835
0.39019422327614384,0.42424389487584835
0.4039067281418257,0.42424389487584835
0.4098141242111931,0.42424389487584835
0.3999888696087737,0.4232672578380392
0.3941120818091958,0.4222906208002301
0.3843174354765659,0.4203301123761837
0.38039957694351395,0.4193534753383746
0.37057432234109455,0.41740020126275634
0.3646975345415166,0.41544692718713816
0.374522789143936,0.41544692718713816
0.39019422327614384,0.41740020126275634
0.4039067281418257,0.4222906208002301
0.4156909120107711,0.4310875884889403
0.4039067281418257,0.444767741366696
0.3999888696087737,0.4633455481303537
0.38039957694351395,0.4848460316590105
0.3549028882088867,0.5073303865739046
0.3549028882088867,0.5268848303753715
0.34902610040930876,0.5444787657527919
0.374522789143936,0.5591427900167849
0.3843174354765659,0.5698930317811133
0.37057432234109455,0.5816199105832508
0.34902610040930876,0.5914007496581983
0.3392008458068894,0.5992210803090994
0.3549028882088867,0.605080902535954
0.34902610040930876,0.6080180479978096
0.3588207467419387,0.6099713220734279
0.2784434302747945,0.6109479591112369
0.2647003171393232,0.611924596149046
0.9215537868213162,0.6099713220734279
1.503906727835743,0.6080180479978096
1.503906727835743,0.6060575395737632
1.041170905158559,0.6021509914225267
0.4706021480130775,0.597260571885053
0.4156909120107711,0.590416878271961
0.38039957694351395,0.5806432735454417
0.374522789143936,0.5689163947433042
0.34902610040930876,0.5571822815927384
0.33528298727383743,0.5444787657527919
0.3196115531416296,0.5307913785266078
0.34902610040930876,0.5190644997244704
0.3549028882088867,0.5092836606495229
0.3451082418762568,0.5014633299986218
0.38039957694351395,0.49462687073395806
0.3843174354765659,0.4887598141586752
0.39019422327614384,0.4848460316590105
0.4039067281418257,0.4809394835077741
0.4156909120107711,0.4780023380459186
0.42548555834340096,0.47507242693249124
0.4392286714788723,0.4721425158190639
0.46469475194371007,0.4692053703572084
0.49410929921138924,0.46725209628159015
0.5392258888810657,0.4633455481303537
0.5803940117479008,0.4604084026684982
0.6254799931477878,0.45747849155507087
0.6764733706170423,0.45454858044164353
0.7058879178847215,0.4525880720175971
0.7411792529519786,0.44965816090416977
0.7548917578176605,0.44672824979074244
0.7509738992846084,0.44183783025326867
0.7353024651524006,0.43694741071579496
0.7058879178847215,0.4330408625645585
0.6607713282150449,0.42815044302708477
0.605890700482528,0.42424389487584835
0.5509794644802216,0.4203301123761837
0.5058934830803345,0.41642356422494725
0.4607768934106581,0.4134864187630917
0.42940341687645295,0.4115331446874735
0.4098141242111931,0.40957987061185525
0.4039067281418257,0.40860323357404615
0.4039067281418257,0.40762659653623706
0.3999888696087737,0.40762659653623706
0.4039067281418257,0.4056660881121906
0.42548555834340096,0.40468945107438153
0.42940341687645295,0.40468945107438153
0.4352802046760309,0.4037128140365724
0.44510545927845024,0.40468945107438153
0.44902331781150223,0.4056660881121906
0.44902331781150223,0.40762659653623706
0.44510545927845024,0.40860323357404615
0.44510545927845024,0.40762659653623706
0.44902331781150223,0.40762659653623706
0.44902331781150223,0.4056660881121906
0.4392286714788723,0.4037128140365724
0.4352802046760309,0.4027361769987633
0.4352802046760309,0.40078290292314506
0.42548555834340096,0.40078290292314506
0.419608770543823,0.39980626588533597
0.419608770543823,0.39980626588533597
0.4156909120107711,0.40078290292314506
0.42940341687645295,0.4037128140365724
0.4392286714788723,0.40860323357404615
0.4352802046760309,0.41642356422494725
0.42940341687645295,0.42619716895146653
0.419608770543823,0.4408611932154596
0.39019422327614384,0.45943176563068905
0.38039957694351395,0.479962846469965
0.38039957694351395,0.5004866929608127
0.3941120818091958,0.5200411367622795
0.4039067281418257,0.538611709177509
0.39019422327614384,0.5542523704793112
0.3843174354765659,0.5659792492814486
0.38039957694351395,0.5737995799323498
0.3588207467419387,0.5806432735454417
0.3646975345415166,0.5835804190072973
0.3588207467419387,0.5845570560451063
0.374522789143936,0.5855336930829155
0.29411486440700235,0.5855336930829155
0.6509766818824151,0.5845570560451063
1.503906727835743,0.5835804190072973
1.503906727835743,0.5816199105832508
1.503906727835743,0.5786899994698235
0.5509794644802216,0.5737995799323498
0.3588207467419387,0.5689163947433042
0.38039957694351395,0.560119427054594
0.3549028882088867,0.5503385879796465
0.3392008458068894,0.5366584351018908
0.3294061994742595,0.5229710478757068
0.3392008458068894,0.5102675320357603
0.3392008458068894,0.4975567818473854
0.33528298727383743,0.48680654008305696
0.3392008458068894,0.4780023380459186
0.3451082418762568,0.4711658787812548
0.3588207467419387,0.46627545924378105
0.3588207467419387,0.4633455481303537
0.374522789143936,0.4604084026684982
0.38039957694351395,0.4565018545172618
0.39019422327614384,0.4535647090554062
0.4098141242111931,0.44965816090416977
0.42940341687645295,0.4477048868285516
0.45490010561108013,0.44574437840450515
0.49410929921138924,0.44183783025326867
0.5392258888810657,0.43792404775360405
0.5843118702809528,0.43401749960236763
0.6353052477502072,0.4310875884889403
0.6803912291500942,0.4271738059892756
0.7058879178847215,0.42424389487584835
0.7215593520169293,0.4222906208002301
0.7313846066193487,0.4193534753383746
0.7215593520169293,0.41544692718713816
0.6862680169496722,0.4125097817252826
0.6411820355497851,0.4105565076496644
0.5843118702809528,0.40860323357404615
0.5058934830803345,0.40664995949842797
0.45490010561108013,0.40468945107438153
0.4039067281418257,0.4017595399609542
0.3588207467419387,0.39980626588533597
0.33528298727383743,0.39686912042348044
0.3098169068089997,0.3939392093100531
0.2901970058739504,0.39198593523443487
0.29411486440700235,0.3900326611588167
0.2901970058739504,0.3900326611588167
0.28432021807437247,0.38904878977257934
0.3098169068089997,0.3910092981966258
0.3039095107396323,0.392962572272244
0.2999916522065803,0.3939392093100531
0.3196115531416296,0.392962572272244
0.3392008458068894,0.392962572272244
0.33528298727383743,0.39198593523443487
0.3392008458068894,0.3900326611588167
0.3549028882088867,0.38904878977257934
0.3451082418762568,0.38807215273477025
0.3549028882088867,0.38709551569696116
0.34902610040930876,0.386118878659152
0.3392008458068894,0.3851422416213429
0.33528298727383743,0.3831889675457247
0.3392008458068894,0.3812284591216783
0.3294061994742595,0.37927518504606006
0.33528298727383743,0.37829854800825097
0.33528298727383743,0.3773219109704418
0.34902610040930876,0.37829854800825097
0.3588207467419387,0.3812284591216783
0.3549028882088867,0.38807215273477025
0.3451082418762568,0.3978529918097178
0.31373476534205164,0.4125097817252826
0.3098169068089997,0.4301109514511312
0.31373476534205164,0.45063479794197886
0.3196115531416296,0.4711658787812548
0.33528298727383743,0.4907130882342934
0.3235294116746816,0.5073303865739046
0.3294061994742595,0.5200411367622795
0.3098169068089997,0.5337212896400352
0.3098169068089997,0.54643203982841
0.3294061994742595,0.5571822815927384
0.31373476534205164,0.5650026122436396
0.3196115531416296,0.5698930317811133
0.27449496347195307,0.5718463058567315
0.7509738992846084,0.5718463058567315
1.503906727835743,0.5698930317811133
1.503906727835743,0.5679397577054951
1.407857977236391,0.5650026122436396
0.4745200065461294,0.5610960640924031
0.3196115531416296,0.5562056445549294
0.3451082418762568,0.5503385879796465
0.33528298727383743,0.5435021287149827
0.3392008458068894,0.5347051610262725
0.31373476534205164,0.523947684913516
0.3098169068089997,0.5122208061113784
0.31373476534205164,0.49951005592300357
0.3196115531416296,0.4887598141586752
0.31373476534205164,0.47898620943215586
0.3235294116746816,0.4711658787812548
0.3235294116746816,0.46529882220597196
0.3294061994742595,0.4604084026684982
0.33528298727383743,0.45845512859287996
0.3451082418762568,0.45747849155507087
0.3588207467419387,0.4565018545172618
0.38039957694351395,0.4565018545172618
0.4156909120107711,0.4565018545172618
0.45490010561108013,0.4565018545172618
0.4999860870109672,0.45454858044164353
0.5548973230132735,0.4525880720175971
0.6196032053482099,0.44965816090416977
0.6901858754827241,0.44672824979074244
0.7509738992846084,0.44183783025326867
0.7901830928849176,0.43694741071579496
0.8117619230864929,0.4320642255267494
0.8215565694191228,0.4271738059892756
0.8058851352869149,0.4232672578380392
0.7666759416866058,0.4193534753383746
0.7098057764177734,0.41544692718713816
0.6293978516808398,0.4115331446874735
0.5451026766806437,0.40860323357404615
0.4745200065461294,0.40762659653623706
0.419608770543823,0.40664995949842797
0.3843174354765659,0.40664995949842797
0.3392008458068894,0.40762659653623706
0.2999916522065803,0.40762659653623706
0.27449496347195307,0.40762659653623706
0.28432021807437247,0.40860323357404615
0.2901970058739504,0.40762659653623706
0.29411486440700235,0.40762659653623706
0.2999916522065803,0.40664995949842797
0.3098169068089997,0.4056660881121906
0.3235294116746816,0.4056660881121906
0.3392008458068894,0.40468945107438153
0.33528298727383743,0.40468945107438153
0.3549028882088867,0.4056660881121906
0.37057432234109455,0.4056660881121906
0.374522789143936,0.4037128140365724
0.37057432234109455,0.4017595399609542
0.38039957694351395,0.39980626588533597
0.38039957694351395,0.3978529918097178
0.374522789143936,0.39589248338567135
0.37057432234109455,0.3939392093100531
0.34902610040930876,0.3910092981966258
0.37057432234109455,0.3900326611588167
0.3588207467419387,0.38904878977257934
0.38039957694351395,0.38904878977257934
0.3843174354765659,0.3900326611588167
0.3941120818091958,0.39198593523443487
0.4039067281418257,0.39589248338567135
0.3843174354765659,0.4027361769987633
0.38039957694351395,0.4125097817252826
0.34902610040930876,0.4232672578380392
0.3451082418762568,0.4359707736779858
0.3392008458068894,0.4525880720175971
0.3646975345415166,0.4711658787812548
0.38039957694351395,0.4887598141586752
0.3588207467419387,0.5073303865739046
0.3588207467419387,0.524924321951325
0.3392008458068894,0.539588346215318
0.3451082418762568,0.5513224593658839
0.3549028882088867,0.560119427054594
0.3549028882088867,0.5650026122436396
0.3392008458068894,0.5659792492814486
0.27449496347195307,0.5659792492814486
0.5843118702809528,0.5640259752058304
1.468615392768486,0.560119427054594
1.503906727835743,0.5552290075171202
1.503906727835743,0.5503385879796465
0.6764733706170423,0.5435021287149827
0.42940341687645295,0.5347051610262725
0.4156909120107711,0.523947684913516
0.3843174354765659,0.5122208061113784
0.3588207467419387,0.5014633299986218
0.3294061994742595,0.4926663623099116
0.3392008458068894,0.4858226686968196
0.3588207467419387,0.479962846469965
0.37057432234109455,0.47507242693249124
0.3646975345415166,0.4721425158190639
0.3843174354765659,0.4701892417434457
0.38039957694351395,0.4701892417434457
0.39019422327614384,0.4692053703572084
0.4039067281418257,0.46725209628159015
0.4156909120107711,0.46529882220597196
0.42548555834340096,0.46236891109254463
0.4607768934106581,0.45943176563068905
0.4706021480130775,0.4555252174794526
0.49410929921138924,0.451611434979788
0.5156881294129645,0.4486815238663607
0.5646919693459035,0.44574437840450515
0.60980855901558,0.4428144672910778
0.6705965828174644,0.4408611932154596
0.7156825642173513,0.4389079191398414
0.7411792529519786,0.43694741071579496
0.7607991538870279,0.43401749960236763
0.7803884465522877,0.4320642255267494
0.7862652343518657,0.42912708006489386
0.7411792529519786,0.4271738059892756
0.6960932715520916,0.42424389487584835
0.6353052477502072,0.4222906208002301
0.5745172239483228,0.42130674941399276
0.5196059879460164,0.4193534753383746
0.46469475194371007,0.41837683830056543
0.42548555834340096,0.41740020126275634
0.3999888696087737,0.41544692718713816
0.38039957694351395,0.4134864187630917
0.374522789143936,0.4115331446874735
0.3588207467419387,0.4105565076496644
0.3549028882088867,0.4105565076496644
0.3549028882088867,0.4105565076496644
0.3588207467419387,0.4115331446874735
0.374522789143936,0.4115331446874735
0.37057432234109455,0.4115331446874735
0.374522789143936,0.4105565076496644
0.37057432234109455,0.4105565076496644
0.39019422327614384,0.4105565076496644
0.3941120818091958,0.4125097817252826
0.39019422327614384,0.414470290149329
0.4039067281418257,0.41642356422494725
0.4098141242111931,0.41837683830056543
0.3999888696087737,0.41837683830056543
0.4039067281418257,0.41837683830056543
0.4039067281418257,0.41837683830056543
0.39019422327614384,0.41837683830056543
0.3843174354765659,0.4193534753383746
0.3646975345415166,0.4193534753383746
0.3941120818091958,0.4203301123761837
0.4098141242111931,0.4222906208002301
0.42548555834340096,0.42619716895146653
0.42548555834340096,0.4359707736779858
0.4156909120107711,0.45063479794197886
0.4156909120107711,0.4692053703572084
0.37057432234109455,0.4887598141586752
0.3843174354765659,0.5102675320357603
0.38039957694351395,0.531768015564417
0.3999888696087737,0.5522990964036929
0.39019422327614384,0.5689163947433042
0.38039957694351395,0.5826037819694881
0.3588207467419387,0.5923773866960075
0.3451082418762568,0.598237208922862
0.37057432234109455,0.6021509914225267
0.3646975345415166,0.604104265498145
0.3843174354765659,0.605080902535954
0.3039095107396323,0.6060575395737632
0.2901970058739504,0.6060575395737632
0.8960877063564784,0.6060575395737632
1.503906727835743,0.604104265498145
1.503906727835743,0.6001977173469085
1.0921642826278133,0.5962839348472438
0.49019144067833725,0.590416878271961
0.42548555834340096,0.5835804190072973
0.4039067281418257,0.5747834513185871
0.38039957694351395,0.566963120667686
0.374522789143936,0.5581589186305476
0.3549028882088867,0.5474086768662192
0.37057432234109455,0.5366584351018908
0.3999888696087737,0.5268848303753715
0.4156909120107711,0.5180806283382331
0.42548555834340096,0.5102675320357603
0.4607768934106581,0.5034238384226682
0.4706021480130775,0.4975567818473854
0.4706021480130775,0.49462687073395806
0.48431465287875936,0.49168972527210253
0.4999860870109672,0.48778317712086605
0.5156881294129645,0.4848460316590105
0.5353080303480138,0.4819161205455832
0.5548973230132735,0.4780023380459186
0.5803940117479008,0.47409578989468215
0.615685346815158,0.4701892417434457
0.654894540415467,0.46627545924378105
0.6901858754827241,0.4633455481303537
0.7450971114850305,0.45943176563068905
0.7803884465522877,0.4555252174794526
0.800008347487337,0.451611434979788
0.8156797816195448,0.4477048868285516
0.8255050362219641,0.4437911043288869
0.796090488954285,0.4398845561776505
0.7509738992846084,0.43694741071579496
0.6960932715520916,0.4330408625645585
0.6450998940828371,0.42912708006489386
0.5745172239483228,0.42522053191365744
0.5098113416133866,0.4222906208002301
0.4607768934106581,0.4203301123761837
0.419608770543823,0.4193534753383746
0.39019422327614384,0.41740020126275634
0.37057432234109455,0.41642356422494725
0.3646975345415166,0.41544692718713816
0.3549028882088867,0.41544692718713816
0.3549028882088867,0.41544692718713816
0.3588207467419387,0.41544692718713816
0.3549028882088867,0.41740020126275634
0.37057432234109455,0.41837683830056543
0.38039957694351395,0.41837683830056543
0.374522789143936,0.41837683830056543
0.38039957694351395,0.41740020126275634
0.3843174354765659,0.41740020126275634
0.3843174354765659,0.41740020126275634
0.3843174354765659,0.41837683830056543
0.39019422327614384,0.41837683830056543
0.374522789143936,0.41740020126275634
0.37057432234109455,0.41642356422494725
0.3646975345415166,0.414470290149329
0.3549028882088867,0.4134864187630917
0.3392008458068894,0.4125097817252826
0.34902610040930876,0.4115331446874735
0.3588207467419387,0.4125097817252826
0.374522789143936,0.414470290149329
0.37057432234109455,0.41740020126275634
0.3588207467419387,0.4222906208002301
0.37057432234109455,0.4310875884889403
0.3451082418762568,0.4437911043288869
0.3196115531416296,0.4604084026684982
0.31373476534205164,0.4780023380459186
0.3196115531416296,0.49658014480957624
0.3451082418762568,0.5112441690735693
0.3392008458068894,0.524924321951325
0.33528298727383743,0.5376350721396999
0.3196115531416296,0.5503385879796465
0.3098169068089997,0.560119427054594
0.3196115531416296,0.566963120667686
0.3098169068089997,0.5718463058567315
0.3098169068089997,0.5757600883563961
0.2549056708066933,0.5777133624320144
0.24902888300711534,0.5786899994698235
0.9156769990217383,0.5786899994698235
1.503906727835743,0.5786899994698235
1.503906727835743,0.5767367253942053
1.0509655514911889,0.5737995799323498
0.3646975345415166,0.5698930317811133
0.3039095107396323,0.5640259752058304
0.3294061994742595,0.5571822815927384
0.3039095107396323,0.5483853139040282
0.2999916522065803,0.5376350721396999
0.28432021807437247,0.5259009589891341
0.2901970058739504,0.5141740801869966
0.3098169068089997,0.5034238384226682
0.31373476534205164,0.49462687073395806
0.3235294116746816,0.48778317712086605
0.33528298727383743,0.48289275758339234
0.33528298727383743,0.479962846469965
0.3451082418762568,0.4770257010081094
0.3646975345415166,0.47507242693249124
0.374522789143936,0.473119152856873
0.39019422327614384,0.4711658787812548
0.42548555834340096,0.46725209628159015
0.44510545927845024,0.4633455481303537
0.48039679434570737,0.45845512859287996
0.5254827757455944,0.4535647090554062
0.5548973230132735,0.4486815238663607
0.6196032053482099,0.4437911043288869
0.6705965828174644,0.4389079191398414
0.7254772105499813,0.43401749960236763
0.7450971114850305,0.4301109514511312
0.7411792529519786,0.42619716895146653
0.7548917578176605,0.4222906208002301
0.7254772105499813,0.4193534753383746
0.6901858754827241,0.41740020126275634
0.6254799931477878,0.41544692718713816
0.5646919693459035,0.4134864187630917
0.48431465287875936,0.4115331446874735
0.42940341687645295,0.40860323357404615
0.3646975345415166,0.40664995949842797
0.3294061994742595,0.4037128140365724
0.3039095107396323,0.4017595399609542
0.2901970058739504,0.39980626588533597
0.28432021807437247,0.3988296288475269
0.2784434302747945,0.3988296288475269
0.27449496347195307,0.39980626588533597
0.2784434302747945,0.4017595399609542
0.27449496347195307,0.4037128140365724
0.29411486440700235,0.40468945107438153
0.3039095107396323,0.4037128140365724
0.3098169068089997,0.4037128140365724
0.3235294116746816,0.4027361769987633
0.3294061994742595,0.4027361769987633
0.33528298727383743,0.4017595399609542
0.33528298727383743,0.40078290292314506
0.33528298727383743,0.40078290292314506
0.3235294116746816,0.4017595399609542
0.3196115531416296,0.40078290292314506
0.3098169068089997,0.39980626588533597
0.2999916522065803,0.3978529918097178
0.29411486440700235,0.39589248338567135
0.2999916522065803,0.3939392093100531
0.3098169068089997,0.39198593523443487
0.31373476534205164,0.39198593523443487
0.3235294116746816,0.392962572272244
0.3294061994742595,0.39589248338567135
0.3294061994742595,0.4027361769987633
0.3235294116746816,0.4105565076496644
0.3039095107396323,0.4203301123761837
0.3039095107396323,0.4330408625645585
0.31373476534205164,0.44965816090416977
0.33528298727383743,0.46822873331939924
0.3451082418762568,0.48680654008305696
0.33528298727383743,0.5044004754604773
0.34902610040930876,0.5200411367622795
0.3294061994742595,0.5337212896400352
0.3392008458068894,0.545455402790601
0.3294061994742595,0.5542523704793112
0.3392008458068894,0.5620727011302122
0.2999916522065803,0.566963120667686
0.2549056708066933,0.5698930317811133
0.6607713282150449,0.5708696688189224
1.503906727835743,0.5718463058567315
1.503906727835743,0.5718463058567315
1.45686181716933,0.5698930317811133
0.5058934830803345,0.566963120667686
0.34902610040930876,0.5610960640924031
0.3646975345415166,0.5542523704793112
0.3451082418762568,0.5435021287149827
0.33528298727383743,0.531768015564417
0.3196115531416296,0.5200411367622795
0.3098169068089997,0.5073303865739046
0.3294061994742595,0.4985334188851945
0.33528298727383743,0.4926663623099116
0.3549028882088867,0.48680654008305696
0.3588207467419387,0.4819161205455832
0.3646975345415166,0.4780023380459186
0.374522789143936,0.47604906397030033
0.3941120818091958,0.47507242693249124
0.4098141242111931,0.473119152856873
0.4039067281418257,0.4701892417434457
0.44902331781150223,0.46822873331939924
0.4607768934106581,0.4643221851681628
0.4999860870109672,0.4604084026684982
0.5353080303480138,0.4565018545172618
0.5745172239483228,0.4525880720175971
0.615685346815158,0.4486815238663607
0.6705965828174644,0.4437911043288869
0.7156825642173513,0.4398845561776505
0.7548917578176605,0.4349941366401767
0.7764705880192357,0.4301109514511312
0.7666759416866058,0.42619716895146653
0.7803884465522877,0.4222906208002301
0.7411792529519786,0.4193534753383746
0.6901858754827241,0.41642356422494725
0.6196032053482099,0.414470290149329
0.5607741108128516,0.4115331446874735
0.49410929921138924,0.40957987061185525
0.4392286714788723,0.40860323357404615
0.4039067281418257,0.40664995949842797
0.374522789143936,0.4037128140365724
0.3451082418762568,0.4027361769987633
0.3392008458068894,0.4017595399609542
0.3294061994742595,0.40078290292314506
0.3235294116746816,0.40078290292314506
0.3196115531416296,0.40078290292314506
0.3235294116746816,0.4017595399609542
0.34902610040930876,0.40078290292314506
0.34902610040930876,0.40078290292314506
0.3588207467419387,0.40078290292314506
0.374522789143936,0.39980626588533597
0.37057432234109455,0.3988296288475269
0.38039957694351395,0.3978529918097178
0.3843174354765659,0.3978529918097178
0.39019422327614384,0.39686912042348044
0.39019422327614384,0.39686912042348044
0.3999888696087737,0.39686912042348044
0.38039957694351395,0.39589248338567135
0.374522789143936,0.3949158463478622
0.3646975345415166,0.3939392093100531
0.374522789143936,0.392962572272244
0.3646975345415166,0.39198593523443487
0.3843174354765659,0.392962572272244
0.4039067281418257,0.39589248338567135
0.3999888696087737,0.40078290292314506
0.39019422327614384,0.40957987061185525
0.4039067281418257,0.4222906208002301
0.3843174354765659,0.4389079191398414
0.34902610040930876,0.45943176563068905
0.34902610040930876,0.4819161205455832
0.3549028882088867,0.5034238384226682
0.37057432234109455,0.524924321951325
0.3646975345415166,0.5435021287149827
0.37057432234109455,0.5591427900167849
0.3549028882088867,0.5689163947433042
0.3392008458068894,0.5757600883563961
0.3451082418762568,0.5806432735454417
0.3392008458068894,0.5835804190072973
0.3451082418762568,0.5855336930829155
0.2784434302747945,0.5865103301207246
0.26861817567237517,0.5855336930829155
0.9705882350240447,0.5835804190072973
1.503906727835743,0.5816199105832508
1.503906727835743,0.5786899994698235
1.027458400292877,0.5757600883563961
0.49019144067833725,0.5718463058567315
0.42548555834340096,0.5659792492814486
0.3999888696087737,0.560119427054594
0.374522789143936,0.553275733441502
0.34902610040930876,0.5435021287149827
0.33528298727383743,0.531768015564417
0.3451082418762568,0.5200411367622795
0.374522789143936,0.5102675320357603
0.34902610040930876,0.5024472013848591
0.3588207467419387,0.49560350777176715
0.374522789143936,0.49168972527210253
0.38039957694351395,0.4897364511964843
0.3843174354765659,0.48680654008305696
0.3941120818091958,0.4848460316590105
0.4098141242111931,0.48386939462120143
0.4156909120107711,0.4819161205455832
0.4392286714788723,0.4809394835077741
0.4607768934106581,0.4780023380459186
0.48039679434570737,0.47409578989468215
0.5254827757455944,0.4711658787812548
0.5705993654152709,0.46725209628159015
0.60980855901558,0.4633455481303537
0.6607713282150449,0.4604084026684982
0.7000111300851435,0.4565018545172618
0.7215593520169293,0.451611434979788
0.7353024651524006,0.4477048868285516
0.7353024651524006,0.4428144672910778
0.7254772105499813,0.43792404775360405
0.6901858754827241,0.43401749960236763
0.6509766818824151,0.4301109514511312
0.5901886580805307,0.42522053191365744
0.5353080303480138,0.4232672578380392
0.48039679434570737,0.42130674941399276
0.4352802046760309,0.42130674941399276
0.3941120818091958,0.4203301123761837
0.37057432234109455,0.4203301123761837
0.3549028882088867,0.4193534753383746
0.34902610040930876,0.41837683830056543
0.3451082418762568,0.41837683830056543
0.3549028882088867,0.41837683830056543
0.34902610040930876,0.41837683830056543
0.3646975345415166,0.41837683830056543
0.37057432234109455,0.4193534753383746
0.374522789143936,0.4193534753383746
0.37057432234109455,0.4193534753383746
0.374522789143936,0.4193534753383746
0.374522789143936,0.4193534753383746
0.38039957694351395,0.41837683830056543
0.39019422327614384,0.41740020126275634
0.3941120818091958,0.41642356422494725
0.3941120818091958,0.414470290149329
0.3999888696087737,0.4134864187630917
0.3999888696087737,0.4115331446874735
0.3843174354765659,0.4115331446874735
0.374522789143936,0.4105565076496644
0.374522789143936,0.4115331446874735
0.37057432234109455,0.4134864187630917
0.4039067281418257,0.41740020126275634
0.42548555834340096,0.42424389487584835
0.4098141242111931,0.43401749960236763
0.4039067281418257,0.4477048868285516
0.3843174354765659,0.46627545924378105
0.3549028882088867,0.48778317712086605
0.3549028882088867,0.5092836606495229
0.3549028882088867,0.5278614674131806
0.374522789143936,0.5425254916771737
0.38039957694351395,0.5571822815927384
0.374522789143936,0.5698930317811133
0.38039957694351395,0.5796666365076326
0.3646975345415166,0.5884636041963428
0.37057432234109455,0.5953072978094348
0.3843174354765659,0.6001977173469085
0.3999888696087737,0.6021509914225267
0.34902610040930876,0.6031276284603359
0.3196115531416296,0.604104265498145
0.9058823526891083,0.604104265498145
1.503906727835743,0.6031276284603359
1.503906727835743,0.6011743543847177
1.1568701649627497,0.598237208922862
0.5098113416133866,0.5933540237338165
0.44510545927845024,0.5865103301207246
0.4352802046760309,0.5767367253942053
0.4156909120107711,0.5659792492814486
0.3941120818091958,0.5552290075171202
0.3646975345415166,0.5425254916771737
0.3549028882088867,0.5307913785266078
0.38039957694351395,0.5200411367622795
0.4039067281418257,0.5102675320357603
0.39019422327614384,0.5034238384226682
0.4039067281418257,0.49951005592300357
0.42548555834340096,0.49560350777176715
0.42940341687645295,0.4926663623099116
0.42940341687645295,0.4897364511964843
0.44510545927845024,0.48680654008305696
0.44902331781150223,0.48386939462120143
0.4706021480130775,0.4809394835077741
0.48431465287875936,0.47898620943215586
0.5098113416133866,0.47507242693249124
0.5451026766806437,0.4721425158190639
0.5843118702809528,0.4692053703572084
0.6411820355497851,0.46529882220597196
0.6764733706170423,0.4613850397063073
0.7156825642173513,0.45845512859287996
0.7450971114850305,0.4555252174794526
0.7548917578176605,0.451611434979788
0.7548917578176605,0.4486815238663607
0.7411792529519786,0.444767741366696
0.7098057764177734,0.4398845561776505
0.6509766818824151,0.4349941366401767
0.5843118702809528,0.4301109514511312
0.5254827757455944,0.42619716895146653
0.4706021480130775,0.4222906208002301
0.42548555834340096,0.4193534753383746
0.38039957694351395,0.41740020126275634
0.37057432234109455,0.41740020126275634
0.34902610040930876,0.41837683830056543
0.33528298727383743,0.4193534753383746
0.3235294116746816,0.4193534753383746
0.3294061994742595,0.4203301123761837
0.3294061994742595,0.4193534753383746
0.3235294116746816,0.41837683830056543
0.33528298727383743,0.41642356422494725
0.3392008458068894,0.4134864187630917
0.34902610040930876,0.4115331446874735
0.3549028882088867,0.40957987061185525
0.3549028882088867,0.40664995949842797
0.3549028882088867,0.40468945107438153
0.3588207467419387,0.4037128140365724
0.3549028882088867,0.4037128140365724
0.3451082418762568,0.4027361769987633
0.33528298727383743,0.4027361769987633
0.3451082418762568,0.4027361769987633
0.33528298727383743,0.4027361769987633
0.3235294116746816,0.4017595399609542
0.33528298727383743,0.40078290292314506
0.34902610040930876,0.4017595399609542
0.34902610040930876,0.4027361769987633
0.3588207467419387,0.40664995949842797
0.34902610040930876,0.4134864187630917
0.3451082418762568,0.42130674941399276
0.3294061994742595,0.4320642255267494
0.3098169068089997,0.44672824979074244
0.3039095107396323,0.46529882220597196
0.3235294116746816,0.4858226686968196
0.3196115531416296,0.5053771124982864
0.3294061994742595,0.524924321951325
0.3235294116746816,0.5415416202909363
0.31373476534205164,0.5552290075171202
0.3098169068089997,0.5659792492814486
0.3039095107396323,0.5728229428945406
0.3098169068089997,0.5757600883563961
0.3039095107396323,0.5767367253942053
0.24902888300711534,0.5767367253942053
0.44902331781150223,0.5767367253942053
1.227452835097264,0.5767367253942053
1.503906727835743,0.5767367253942053
1.503906727835743,0.5767367253942053
0.7509738992846084,0.5747834513185871
0.3196115531416296,0.5718463058567315
0.3098169068089997,0.5650026122436396
0.3294061994742595,0.5552290075171202
0.31373476534205164,0.5435021287149827
0.2901970058739504,0.5307913785266078
0.29411486440700235,0.517103991300424
0.2999916522065803,0.5063537495360956
0.3098169068089997,0.49658014480957624
0.31373476534205164,0.48680654008305696
0.3235294116746816,0.4780023380459186
0.3294061994742595,0.4721425158190639
0.33528298727383743,0.46822873331939924
0.34902610040930876,0.46627545924378105
0.37057432234109455,0.4633455481303537
0.3646975345415166,0.4613850397063073
0.3843174354765659,0.45943176563068905
0.4156909120107711,0.4565018545172618
0.45490010561108013,0.4535647090554062
0.49019144067833725,0.44965816090416977
0.5254827757455944,0.44574437840450515
0.5901886580805307,0.44183783025326867
0.654894540415467,0.43792404775360405
0.6960932715520916,0.43401749960236763
0.7353024651524006,0.4301109514511312
0.7607991538870279,0.42619716895146653
0.7803884465522877,0.4232672578380392
0.7411792529519786,0.4193534753383746
0.7058879178847215,0.41740020126275634
0.6647197950178864,0.414470290149329
0.605890700482528,0.4115331446874735
0.5098113416133866,0.40957987061185525
0.45490010561108013,0.40762659653623706
0.4039067281418257,0.4056660881121906
0.3451082418762568,0.40468945107438153
0.31373476534205164,0.4037128140365724
0.2999916522065803,0.4037128140365724
0.3098169068089997,0.4027361769987633
0.28432021807437247,0.4027361769987633
0.2999916522065803,0.4027361769987633
0.2901970058739504,0.4027361769987633
0.3039095107396323,0.4017595399609542
0.28432021807437247,0.40078290292314506
0.3098169068089997,0.39980626588533597
0.3098169068089997,0.3988296288475269
0.3294061994742595,0.3988296288475269
0.33528298727383743,0.40078290292314506
0.3549028882088867,0.4027361769987633
0.34902610040930876,0.40468945107438153
0.3451082418762568,0.4056660881121906
0.3588207467419387,0.40664995949842797
0.3392008458068894,0.40664995949842797
0.33528298727383743,0.4056660881121906
0.34902610040930876,0.4037128140365724
0.374522789143936,0.4017595399609542
0.3392008458068894,0.3988296288475269
0.3294061994742595,0.39686912042348044
0.3235294116746816,0.39589248338567135
0.3588207467419387,0.39589248338567135
0.3843174354765659,0.3978529918097178
0.38039957694351395,0.40078290292314506
0.3646975345415166,0.4056660881121906
0.374522789143936,0.414470290149329
0.33528298727383743,0.4271738059892756
0.3196115531416296,0.4437911043288869
0.34902610040930876,0.4643221851681628
0.3196115531416296,0.48680654008305696
0.3235294116746816,0.5102675320357603
0.34902610040930876,0.5337212896400352
0.3392008458068894,0.553275733441502
0.3196115531416296,0.5689163947433042
0.3098169068089997,0.5826037819694881
0.3451082418762568,0.5933540237338165
0.3549028882088867,0.6001977173469085
0.3235294116746816,0.605080902535954
0.2901970058739504,0.6070414109600005
0.8058851352869149,0.6080180479978096
1.503906727835743,0.6060575395737632
1.503906727835743,0.6021509914225267
1.4725638595713273,0.597260571885053
0.49019144067833725,0.590416878271961
0.3451082418762568,0.5826037819694881
0.3843174354765659,0.5747834513185871
0.3549028882088867,0.5659792492814486
0.3451082418762568,0.5552290075171202
0.33528298727383743,0.5444787657527919
0.33528298727383743,0.5337212896400352
0.34902610040930876,0.524924321951325
0.3451082418762568,0.517103991300424
0.3549028882088867,0.5092836606495229
0.374522789143936,0.5044004754604773
0.3843174354765659,0.5024472013848591
0.3999888696087737,0.5014633299986218
0.42940341687645295,0.5004866929608127
0.44510545927845024,0.5004866929608127
0.4745200065461294,0.49951005592300357
0.4999860870109672,0.49951005592300357
0.5254827757455944,0.49951005592300357
0.5548973230132735,0.49951005592300357
0.5960654458801087,0.49951005592300357
0.6411820355497851,0.49951005592300357
0.6803912291500942,0.49951005592300357
0.7353024651524006,0.49951005592300357
0.7862652343518657,0.49951005592300357
0.8058851352869149,0.49951005592300357
0.8058851352869149,0.49951005592300357
0.800008347487337,0.49951005592300357
0.7862652343518657,0.49951005592300357
0.7450971114850305,0.4975567818473854
0.6960932715520916,0.49462687073395806
0.6293978516808398,0.4907130882342934
0.5705993654152709,0.48680654008305696
0.5098113416133866,0.4819161205455832
0.45490010561108013,0.4780023380459186
0.4156909120107711,0.47409578989468215
0.3843174354765659,0.4711658787812548
0.3646975345415166,0.46725209628159015
0.3646975345415166,0.4633455481303537
0.3549028882088867,0.45845512859287996
0.3646975345415166,0.4555252174794526
0.3549028882088867,0.4535647090554062
0.3646975345415166,0.4525880720175971
0.38039957694351395,0.451611434979788
0.38039957694351395,0.45063479794197886
0.3941120818091958,0.44965816090416977
0.4039067281418257,0.44672824979074244
0.419608770543823,0.4428144672910778
0.42548555834340096,0.4398845561776505
0.42940341687645295,0.4349941366401767
0.4352802046760309,0.4310875884889403
0.4392286714788723,0.42619716895146653
0.42940341687645295,0.4232672578380392
0.42548555834340096,0.42130674941399276
0.4156909120107711,0.4193534753383746
0.4098141242111931,0.41740020126275634
0.3941120818091958,0.414470290149329
0.3999888696087737,0.4125097817252826
0.3941120818091958,0.40957987061185525
0.3999888696087737,0.40860323357404615
0.42548555834340096,0.40860323357404615
0.42548555834340096,0.4115331446874735
0.42548555834340096,0.41544692718713816
0.419608770543823,0.4222906208002301
0.3941120818091958,0.4330408625645585
0.374522789143936,0.4437911043288869
0.38039957694351395,0.4565018545172618
0.39019422327614384,0.473119152856873
0.4039067281418257,0.4897364511964843
0.39019422327614384,0.5044004754604773
0.3843174354765659,0.5180806283382331
0.38039957694351395,0.5298147414887988
0.37057432234109455,0.538611709177509
0.37057432234109455,0.545455402790601
0.374522789143936,0.5503385879796465
0.374522789143936,0.5522990964036929
0.27449496347195307,0.5522990964036929
0.4098141242111931,0.5503385879796465
1.1313734762281225,0.5483853139040282
1.503906727835743,0.5435021287149827
1.503906727835743,0.5376350721396999
0.8803856639544811,0.5298147414887988
0.4392286714788723,0.5190644997244704
0.42548555834340096,0.5073303865739046
0.419608770543823,0.49462687073395806
0.3843174354765659,0.4809394835077741
0.3451082418762568,0.46725209628159015
0.3294061994742595,0.4555252174794526
0.3392008458068894,0.444767741366696
0.3549028882088867,0.4349941366401767
0.3549028882088867,0.42815044302708477
0.37057432234109455,0.42424389487584835
0.38039957694351395,0.4203301123761837
0.39019422327614384,0.41740020126275634
0.3999888696087737,0.41544692718713816
0.4098141242111931,0.4125097817252826
0.42548555834340096,0.4105565076496644
0.44510545927845024,0.40957987061185525
0.45490010561108013,0.40860323357404615
0.48431465287875936,0.40860323357404615
0.5098113416133866,0.40860323357404615
0.5451026766806437,0.40860323357404615
0.5901886580805307,0.40762659653623706
0.6411820355497851,0.40664995949842797
0.6901858754827241,0.4056660881121906
0.7313846066193487,0.4037128140365724
0.7548917578176605,0.4017595399609542
0.7705938002196577,0.39980626588533597
0.7666759416866058,0.3988296288475269
0.7450971114850305,0.39686912042348044
0.7058879178847215,0.3939392093100531
0.6450998940828371,0.39198593523443487
0.5803940117479008,0.38904878977257934
0.5098113416133866,0.38709551569696116
0.44902331781150223,0.3841656045835338
0.4039067281418257,0.3831889675457247
0.374522789143936,0.3831889675457247
0.3451082418762568,0.3841656045835338
0.3294061994742595,0.3841656045835338
0.31373476534205164,0.3851422416213429
0.3098169068089997,0.3851422416213429
0.3098169068089997,0.386118878659152
0.31373476534205164,0.386118878659152
0.31373476534205164,0.38709551569696116
0.3294061994742595,0.38709551569696116
0.33528298727383743,0.38807215273477025
0.3451082418762568,0.38807215273477025
0.34902610040930876,0.38807215273477025
0.3549028882088867,0.38904878977257934
0.3549028882088867,0.3900326611588167
0.3646975345415166,0.3900326611588167
0.3549028882088867,0.3900326611588167
0.374522789143936,0.3900326611588167
0.3646975345415166,0.38807215273477025
0.3588207467419387,0.386118878659152
0.3549028882088867,0.3841656045835338
0.3549028882088867,0.3841656045835338
0.3549028882088867,0.3851422416213429
0.3549028882088867,0.38807215273477025
0.3646975345415166,0.392962572272244
0.38039957694351395,0.39980626588533597
0.4039067281418257,0.40957987061185525
0.3941120818091958,0.42424389487584835
0.38039957694351395,0.4428144672910778
0.3588207467419387,0.46529882220597196
0.3235294116746816,0.48778317712086605
0.3039095107396323,0.5112441690735693
0.33528298727383743,0.5337212896400352
0.3451082418762568,0.553275733441502
0.3392008458068894,0.5698930317811133
0.33528298727383743,0.5826037819694881
0.3235294116746816,0.5923773866960075
0.31373476534205164,0.598237208922862
0.3235294116746816,0.6011743543847177
0.33528298727383743,0.6031276284603359
0.33528298727383743,0.6031276284603359
0.2549056708066933,0.604104265498145
0.24902888300711534,0.604104265498145
0.8902109185569005,0.6031276284603359
1.503906727835743,0.6001977173469085
1.503906727835743,0.5953072978094348
0.9823418106232006,0.5914007496581983
0.4607768934106581,0.5855336930829155
0.4156909120107711,0.5786899994698235
0.3843174354765659,0.5708696688189224
0.34902610040930876,0.5630493381680214
0.33528298727383743,0.553275733441502
0.3196115531416296,0.5425254916771737
0.33528298727383743,0.5307913785266078
0.34902610040930876,0.5180806283382331
0.3549028882088867,0.5073303865739046
0.374522789143936,0.4985334188851945
0.3843174354765659,0.49168972527210253
0.3646975345415166,0.4887598141586752
0.3588207467419387,0.48680654008305696
0.38039957694351395,0.4858226686968196
0.3999888696087737,0.48386939462120143
0.4156909120107711,0.4809394835077741
0.4392286714788723,0.4780023380459186
0.45490010561108013,0.473119152856873
0.48431465287875936,0.4692053703572084
0.5294006342786464,0.4643221851681628
0.5646919693459035,0.45943176563068905
0.615685346815158,0.4555252174794526
0.6607713282150449,0.4525880720175971
0.6960932715520916,0.44965816090416977
0.7215593520169293,0.44574437840450515
0.7313846066193487,0.44183783025326867
0.7313846066193487,0.43792404775360405
0.7098057764177734,0.4330408625645585
0.6803912291500942,0.42912708006489386
0.6450998940828371,0.42522053191365744
0.5803940117479008,0.4222906208002301
0.5294006342786464,0.4203301123761837
0.48039679434570737,0.4193534753383746
0.4352802046760309,0.41837683830056543
0.3999888696087737,0.41740020126275634
0.37057432234109455,0.41642356422494725
0.3392008458068894,0.41642356422494725
0.33528298727383743,0.41642356422494725
0.33528298727383743,0.41642356422494725
0.33528298727383743,0.41642356422494725
0.3235294116746816,0.41642356422494725
0.3451082418762568,0.41740020126275634
0.34902610040930876,0.41642356422494725
0.3451082418762568,0.41642356422494725
0.3549028882088867,0.41544692718713816
0.3588207467419387,0.414470290149329
0.3588207467419387,0.414470290149329
0.3646975345415166,0.4134864187630917
0.3646975345415166,0.4134864187630917
0.374522789143936,0.4134864187630917
0.38039957694351395,0.4134864187630917
0.374522789143936,0.4125097817252826
0.38039957694351395,0.4115331446874735
0.3646975345415166,0.40957987061185525
0.3549028882088867,0.40860323357404615
0.34902610040930876,0.40957987061185525
0.37057432234109455,0.4125097817252826
0.3843174354765659,0.4193534753383746
0.3999888696087737,0.4271738059892756
0.4039067281418257,0.43792404775360405
0.3941120818091958,0.451611434979788
0.3843174354765659,0.4701892417434457
0.3549028882088867,0.4907130882342934
0.3392008458068894,0.5112441690735693
0.3451082418762568,0.531768015564417
0.3549028882088867,0.5483853139040282
0.3588207467419387,0.5610960640924031
0.3549028882088867,0.5728229428945406
0.3549028882088867,0.5835804190072973
0.3451082418762568,0.5914007496581983
0.33528298727383743,0.598237208922862
0.33528298727383743,0.6031276284603359
0.3294061994742595,0.6080180479978096
0.3392008458068894,0.6099713220734279
0.25882352933974523,0.6109479591112369
0.42940341687645295,0.6099713220734279
1.1470449103603302,0.6070414109600005
1.503906727835743,0.6031276284603359
1.503906727835743,0.5992210803090994
0.7509738992846084,0.5933540237338165
0.4039067281418257,0.5865103301207246
0.39019422327614384,0.5786899994698235
0.3941120818091958,0.5708696688189224
0.3646975345415166,0.5610960640924031
0.33528298727383743,0.5503385879796465
0.3294061994742595,0.5405649832531272
0.3294061994742595,0.5307913785266078
0.34902610040930876,0.5219944108378977
0.3549028882088867,0.5141740801869966
0.3646975345415166,0.5092836606495229
0.3843174354765659,0.5053771124982864
0.39019422327614384,0.5034238384226682
0.39019422327614384,0.5034238384226682
0.4156909120107711,0.5024472013848591
0.42548555834340096,0.49951005592300357
0.42940341687645295,0.49560350777176715
0.44902331781150223,0.49168972527210253
0.4706021480130775,0.48680654008305696
0.4999860870109672,0.48289275758339234
0.5392258888810657,0.4780023380459186
0.5843118702809528,0.473119152856873
0.6353052477502072,0.4692053703572084
0.6764733706170423,0.46529882220597196
0.7156825642173513,0.46236891109254463
0.7411792529519786,0.45943176563068905
0.7450971114850305,0.4565018545172618
0.7450971114850305,0.4525880720175971
0.7313846066193487,0.4486815238663607
0.7000111300851435,0.444767741366696
0.6607713282150449,0.4408611932154596
0.615685346815158,0.4359707736779858
0.5705993654152709,0.4320642255267494
0.5254827757455944,0.42912708006489386
0.49410929921138924,0.42619716895146653
0.4607768934106581,0.42424389487584835
0.4352802046760309,0.4232672578380392
0.42548555834340096,0.4232672578380392
0.4039067281418257,0.4232672578380392
0.3999888696087737,0.4232672578380392
0.4098141242111931,0.42424389487584835
0.4098141242111931,0.42424389487584835
0.4156909120107711,0.42424389487584835
0.42548555834340096,0.42424389487584835
0.419608770543823,0.4232672578380392
0.42548555834340096,0.4222906208002301
0.419608770543823,0.42130674941399276
0.42548555834340096,0.42130674941399276
0.4156909120107711,0.42130674941399276
0.4098141242111931,0.4222906208002301
0.4039067281418257,0.4232672578380392
0.3941120818091958,0.42424389487584835
0.3941120818091958,0.42424389487584835
0.39019422327614384,0.4222906208002301
0.38039957694351395,0.42130674941399276
0.38039957694351395,0.4203301123761837
0.3646975345415166,0.4203301123761837
0.374522789143936,0.4222906208002301
0.3941120818091958,0.42424389487584835
0.3999888696087737,0.42912708006489386
0.3999888696087737,0.4359707736779858
0.3941120818091958,0.44574437840450515
0.3843174354765659,0.4565018545172618
0.3588207467419387,0.473119152856873
0.3549028882088867,0.4907130882342934
0.3549028882088867,0.5102675320357603
0.3588207467419387,0.5288381044509897
0.3646975345415166,0.545455402790601
0.3549028882088867,0.560119427054594
0.3549028882088867,0.5718463058567315
0.33528298727383743,0.5796666365076326
0.3294061994742595,0.5855336930829155
0.33528298727383743,0.5894402412341518
0.33528298727383743,0.5923773866960075
0.3451082418762568,0.5923773866960075
0.26861817567237517,0.5923773866960075
0.6803912291500942,0.5923773866960075
1.503906727835743,0.5914007496581983
1.503906727835743,0.5884636041963428
1.2823640710995703,0.5845570560451063
0.44902331781150223,0.5786899994698235
0.3294061994742595,0.5718463058567315
0.3451082418762568,0.5620727011302122
0.3294061994742595,0.5513224593658839
0.3196115531416296,0.539588346215318
0.3039095107396323,0.5278614674131806
0.2999916522065803,0.517103991300424
0.31373476534205164,0.5083070236117138
0.3196115531416296,0.49951005592300357
0.31373476534205164,0.4926663623099116
0.3294061994742595,0.48680654008305696
0.33528298727383743,0.4809394835077741
0.33528298727383743,0.47604906397030033
0.3588207467419387,0.473119152856873
0.374522789143936,0.4721425158190639
0.3941120818091958,0.4701892417434457
0.4039067281418257,0.46725209628159015
0.419608770543823,0.4643221851681628
0.45490010561108013,0.46236891109254463
0.49410929921138924,0.45943176563068905
0.5353080303480138,0.4555252174794526
0.5705993654152709,0.4525880720175971
0.6196032053482099,0.4486815238663607
0.6647197950178864,0.444767741366696
0.7058879178847215,0.4408611932154596
0.7156825642173513,0.4359707736779858
0.7156825642173513,0.4320642255267494
0.7000111300851435,0.42912708006489386
0.6647197950178864,0.42619716895146653
0.6293978516808398,0.42424389487584835
0.5745172239483228,0.4222906208002301
0.5098113416133866,0.4222906208002301
0.44902331781150223,0.42130674941399276
0.4039067281418257,0.4203301123761837
0.3588207467419387,0.41837683830056543
0.33528298727383743,0.41544692718713816
0.3039095107396323,0.4134864187630917
0.2999916522065803,0.4125097817252826
0.3039095107396323,0.4115331446874735
0.2999916522065803,0.4115331446874735
0.2999916522065803,0.4125097817252826
0.29411486440700235,0.4125097817252826
0.3098169068089997,0.4115331446874735
0.31373476534205164,0.4105565076496644
0.31373476534205164,0.40957987061185525
0.3294061994742595,0.40860323357404615
0.33528298727383743,0.40664995949842797
0.33528298727383743,0.4056660881121906
0.3451082418762568,0.40468945107438153
0.3451082418762568,0.40468945107438153
0.34902610040930876,0.4027361769987633
0.3392008458068894,0.40078290292314506
0.33528298727383743,0.3988296288475269
0.3294061994742595,0.39686912042348044
0.3235294116746816,0.3939392093100531
0.3196115531416296,0.39198593523443487
0.31373476534205164,0.3900326611588167
0.3392008458068894,0.38904878977257934
0.3451082418762568,0.38904878977257934
0.33528298727383743,0.39198593523443487
0.3235294116746816,0.39686912042348044
0.3098169068089997,0.4056660881121906
0.28432021807437247,0.41544692718713816
0.27449496347195307,0.42815044302708477
0.2647003171393232,0.4428144672910778
0.27449496347195307,0.4604084026684982
0.2784434302747945,0.4780023380459186
0.2647003171393232,0.49560350777176715
0.2647003171393232,0.5102675320357603
0.25882352933974523,0.5229710478757068
0.26861817567237517,0.5347051610262725
0.27449496347195307,0.5444787657527919
0.28432021807437247,0.5522990964036929
0.2901970058739504,0.5581589186305476
0.25882352933974523,0.5610960640924031
0.6293978516808398,0.5630493381680214
1.503906727835743,0.5630493381680214
1.503906727835743,0.5630493381680214
1.503906727835743,0.5610960640924031
0.5509794644802216,0.5581589186305476
0.3235294116746816,0.5522990964036929
0.3451082418762568,0.5444787657527919
0.33528298727383743,0.5366584351018908
0.3235294116746816,0.524924321951325
0.31373476534205164,0.5131974431491875
0.31373476534205164,0.5004866929608127
0.3294061994742595,0.4897364511964843
0.3549028882088867,0.479962846469965
0.3549028882088867,0.473119152856873
0.3549028882088867,0.46725209628159015
0.3646975345415166,0.4643221851681628
0.37057432234109455,0.46236891109254463
0.38039957694351395,0.4613850397063073
0.4039067281418257,0.45943176563068905
0.42548555834340096,0.4565018545172618
0.4392286714788723,0.45454858044164353
0.46469475194371007,0.451611434979788
0.49019144067833725,0.4477048868285516
0.5254827757455944,0.4437911043288869
0.5745172239483228,0.4389079191398414
0.6254799931477878,0.4349941366401767
0.6764733706170423,0.4310875884889403
0.7313846066193487,0.42912708006489386
0.7666759416866058,0.42619716895146653
0.7803884465522877,0.4232672578380392
0.796090488954285,0.42130674941399276
0.7764705880192357,0.4193534753383746
0.7666759416866058,0.41740020126275634
0.7215593520169293,0.41544692718713816
0.654894540415467,0.4134864187630917
0.5960654458801087,0.4115331446874735
0.5294006342786464,0.40860323357404615
0.4745200065461294,0.40664995949842797
0.42548555834340096,0.4037128140365724
0.3941120818091958,0.4017595399609542
0.37057432234109455,0.40078290292314506
0.3451082418762568,0.3988296288475269
0.3451082418762568,0.3988296288475269
0.3392008458068894,0.3978529918097178
0.3451082418762568,0.3978529918097178
0.3392008458068894,0.39686912042348044
0.3549028882088867,0.39589248338567135
0.3588207467419387,0.3939392093100531
0.37057432234109455,0.39198593523443487
0.38039957694351395,0.3900326611588167
0.3941120818091958,0.38904878977257934
0.4039067281418257,0.38807215273477025
0.4098141242111931,0.38807215273477025
0.4098141242111931,0.38709551569696116
0.4156909120107711,0.386118878659152
0.3999888696087737,0.3841656045835338
0.3941120818091958,0.3822123305079156
0.3999888696087737,0.3812284591216783
0.39019422327614384,0.37829854800825097
0.374522789143936,0.37536863689482364
0.374522789143936,0.3724314914329681
0.38039957694351395,0.37047821735734987
0.4039067281418257,0.36852494328173163
0.4098141242111931,0.37047821735734987
0.42548555834340096,0.3743919998570145
0.4156909120107711,0.3822123305079156
0.4039067281418257,0.3939392093100531
0.374522789143936,0.40957987061185525
0.3588207467419387,0.42424389487584835
0.3646975345415166,0.4389079191398414
0.374522789143936,0.4555252174794526
0.3843174354765659,0.47409578989468215
0.3646975345415166,0.49168972527210253
0.37057432234109455,0.5073303865739046
0.3549028882088867,0.5210177738000886
0.3549028882088867,0.5337212896400352
0.3549028882088867,0.545455402790601
0.34902610040930876,0.5542523704793112
0.3588207467419387,0.5610960640924031
0.26861817567237517,0.5650026122436396
0.49019144067833725,0.5659792492814486
1.3078301515644082,0.5650026122436396
1.503906727835743,0.5610960640924031
1.503906727835743,0.5562056445549294
0.7764705880192357,0.5513224593658839
0.45490010561108013,0.5444787657527919
0.44510545927845024,0.5376350721396999
0.4039067281418257,0.5288381044509897
0.38039957694351395,0.5190644997244704
0.3549028882088867,0.5102675320357603
0.34902610040930876,0.5024472013848591
0.3549028882088867,0.49560350777176715
0.3646975345415166,0.4897364511964843
0.37057432234109455,0.4848460316590105
0.39019422327614384,0.4809394835077741
0.3999888696087737,0.4780023380459186
0.3843174354765659,0.47604906397030033
0.4039067281418257,0.473119152856873
0.42548555834340096,0.4721425158190639
0.4352802046760309,0.4701892417434457
0.44510545927845024,0.46725209628159015
0.4607768934106581,0.46529882220597196
0.48431465287875936,0.4633455481303537
0.5058934830803345,0.4604084026684982
0.5548973230132735,0.45845512859287996
0.5960654458801087,0.4565018545172618
0.6509766818824151,0.45454858044164353
0.6901858754827241,0.451611434979788
0.7156825642173513,0.44965816090416977
0.7411792529519786,0.4486815238663607
0.7450971114850305,0.4477048868285516
0.7411792529519786,0.44672824979074244
0.7215593520169293,0.444767741366696
0.6901858754827241,0.4428144672910778
0.6353052477502072,0.4408611932154596
0.5843118702809528,0.4389079191398414
0.5353080303480138,0.43694741071579496
0.49410929921138924,0.4349941366401767
0.4392286714788723,0.4330408625645585
0.419608770543823,0.4320642255267494
0.3843174354765659,0.4301109514511312
0.39019422327614384,0.42912708006489386
0.374522789143936,0.42815044302708477
0.3588207467419387,0.42815044302708477
0.3549028882088867,0.42815044302708477
0.38039957694351395,0.42815044302708477
0.38039957694351395,0.42815044302708477
0.39019422327614384,0.42912708006489386
0.3843174354765659,0.42912708006489386
0.4039067281418257,0.42912708006489386
0.3999888696087737,0.42815044302708477
0.3941120818091958,0.42815044302708477
0.4098141242111931,0.42815044302708477
0.4039067281418257,0.42815044302708477
0.3999888696087737,0.42815044302708477
0.3999888696087737,0.42815044302708477
0.3999888696087737,0.42815044302708477
0.3941120818091958,0.4271738059892756
0.39019422327614384,0.42522053191365744
0.38039957694351395,0.42424389487584835
0.38039957694351395,0.42424389487584835
0.38039957694351395,0.42522053191365744
0.4098141242111931,0.42815044302708477
0.419608770543823,0.4320642255267494
0.4352802046760309,0.4389079191398414
0.4098141242111931,0.4486815238663607
0.3999888696087737,0.46236891109254463
0.3646975345415166,0.47898620943215586
0.3588207467419387,0.4985334188851945
0.3588207467419387,0.517103991300424
0.38039957694351395,0.5356817980640817
0.39019422327614384,0.5522990964036929
0.3843174354765659,0.5650026122436396
0.38039957694351395,0.5757600883563961
0.3646975345415166,0.5835804190072973
0.3646975345415166,0.590416878271961
0.3646975345415166,0.5933540237338165
0.374522789143936,0.5953072978094348
0.38039957694351395,0.5953072978094348
0.3098169068089997,0.5962839348472438
0.615685346815158,0.5962839348472438
1.4882352937035352,0.5953072978094348
1.503906727835743,0.5933540237338165
1.503906727835743,0.590416878271961
0.6293978516808398,0.5845570560451063
0.4352802046760309,0.5786899994698235
0.44510545927845024,0.5708696688189224
0.44902331781150223,0.5610960640924031
0.42940341687645295,0.5522990964036929
0.3999888696087737,0.5435021287149827
0.38039957694351395,0.5337212896400352
0.3999888696087737,0.524924321951325
0.42548555834340096,0.5180806283382331
0.42548555834340096,0.5131974431491875
0.419608770543823,0.5083070236117138
0.42548555834340096,0.5034238384226682
0.4392286714788723,0.5004866929608127
0.44510545927845024,0.49658014480957624
0.44902331781150223,0.4926663623099116
0.4607768934106581,0.4887598141586752
0.4745200065461294,0.4858226686968196
0.49410929921138924,0.48289275758339234
0.5058934830803345,0.479962846469965
0.5294006342786464,0.47604906397030033
0.5646919693459035,0.4721425158190639
0.6000139126829501,0.46822873331939924
0.6450998940828371,0.46529882220597196
0.6862680169496722,0.4613850397063073
0.7156825642173513,0.45845512859287996
0.7313846066193487,0.45454858044164353
0.7411792529519786,0.451611434979788
0.7313846066193487,0.4486815238663607
0.7215593520169293,0.44574437840450515
0.6803912291500942,0.444767741366696
0.6293978516808398,0.4428144672910778
0.5646919693459035,0.4408611932154596
0.5156881294129645,0.4398845561776505
0.46469475194371007,0.4389079191398414
0.42548555834340096,0.43792404775360405
0.3999888696087737,0.4359707736779858
0.374522789143936,0.43401749960236763
0.3588207467419387,0.4330408625645585
0.3549028882088867,0.4320642255267494
0.3549028882088867,0.4310875884889403
0.3588207467419387,0.4310875884889403
0.3549028882088867,0.4310875884889403
0.3549028882088867,0.4310875884889403
0.3549028882088867,0.4310875884889403
0.3646975345415166,0.4310875884889403
0.37057432234109455,0.4310875884889403
0.38039957694351395,0.4301109514511312
0.3843174354765659,0.4301109514511312
0.37057432234109455,0.42912708006489386
0.3646975345415166,0.42815044302708477
0.37057432234109455,0.4271738059892756
0.3646975345415166,0.42522053191365744
0.3549028882088867,0.4232672578380392
0.3549028882088867,0.42130674941399276
0.3549028882088867,0.4203301123761837
0.33528298727383743,0.41837683830056543
0.33528298727383743,0.41740020126275634
0.34902610040930876,0.41544692718713816
0.3549028882088867,0.414470290149329
0.3646975345415166,0.41544692718713816
0.3549028882088867,0.42130674941399276
0.3549028882088867,0.4301109514511312
0.3235294116746816,0.4428144672910778
0.3098169068089997,0.45845512859287996
0.31373476534205164,0.4770257010081094
0.3235294116746816,0.4975567818473854
0.33528298727383743,0.5141740801869966
0.3235294116746816,0.5288381044509897
0.3294061994742595,0.5425254916771737
0.3098169068089997,0.5552290075171202
0.3098169068089997,0.5650026122436396
0.3098169068089997,0.5728229428945406
0.3098169068089997,0.5767367253942053
0.3196115531416296,0.5786899994698235
0.26861817567237517,0.5796666365076326
0.6000139126829501,0.5806432735454417
1.503906727835743,0.5806432735454417
1.503906727835743,0.5806432735454417
1.503906727835743,0.5786899994698235
0.5646919693459035,0.5777133624320144
0.3098169068089997,0.5737995799323498
0.33528298727383743,0.5698930317811133
0.3294061994742595,0.5630493381680214
0.31373476534205164,0.5542523704793112
0.3196115531416296,0.5435021287149827
0.3098169068089997,0.5307913785266078
0.3098169068089997,0.5180806283382331
0.3235294116746816,0.5063537495360956
0.3294061994742595,0.49560350777176715
0.33528298727383743,0.48778317712086605
0.3392008458068894,0.4819161205455832
0.3549028882088867,0.479962846469965
0.374522789143936,0.4780023380459186
0.3843174354765659,0.4780023380459186
0.3941120818091958,0.4770257010081094
0.4039067281418257,0.47604906397030033
0.42940341687645295,0.473119152856873
0.4706021480130775,0.4692053703572084
0.5058934830803345,0.46529882220597196
0.5607741108128516,0.4613850397063073
0.615685346815158,0.45747849155507087
0.6705965828174644,0.4525880720175971
0.6901858754827241,0.44965816090416977
0.7353024651524006,0.44672824979074244
0.7548917578176605,0.444767741366696
0.7548917578176605,0.4428144672910778
0.7450971114850305,0.4408611932154596
0.7156825642173513,0.4389079191398414
0.6705965828174644,0.43694741071579496
0.60980855901558,0.4349941366401767
0.5353080303480138,0.4330408625645585
0.4745200065461294,0.4301109514511312
0.4156909120107711,0.42815044302708477
0.3588207467419387,0.42619716895146653
0.3235294116746816,0.42424389487584835
0.29411486440700235,0.42130674941399276
0.2784434302747945,0.4203301123761837
0.26861817567237517,0.4193534753383746
0.27449496347195307,0.41837683830056543
0.26861817567237517,0.41740020126275634
0.27449496347195307,0.41740020126275634
0.28432021807437247,0.41642356422494725
0.28432021807437247,0.41544692718713816
0.2999916522065803,0.414470290149329
0.3098169068089997,0.4134864187630917
0.31373476534205164,0.4134864187630917
0.3196115531416296,0.414470290149329
0.3235294116746816,0.414470290149329
0.3294061994742595,0.414470290149329
0.33528298727383743,0.414470290149329
0.3392008458068894,0.414470290149329
0.33528298727383743,0.4134864187630917
0.3392008458068894,0.4125097817252826
0.3392008458068894,0.4105565076496644
0.3392008458068894,0.40860323357404615
0.3392008458068894,0.40762659653623706
0.3549028882088867,0.4056660881121906
0.37057432234109455,0.40468945107438153
0.374522789143936,0.4056660881121906
0.3646975345415166,0.40860323357404615
0.3588207467419387,0.4134864187630917
0.34902610040930876,0.4203301123761837
0.3294061994742595,0.42815044302708477
0.33528298727383743,0.4408611932154596
0.3235294116746816,0.4565018545172618
0.3294061994742595,0.47409578989468215
0.3196115531416296,0.4926663623099116
0.3196115531416296,0.5102675320357603
0.31373476534205164,0.5268848303753715
0.3098169068089997,0.5415416202909363
0.3196115531416296,0.553275733441502
0.3294061994742595,0.5630493381680214
0.33528298727383743,0.5708696688189224
0.28432021807437247,0.5747834513185871
0.26861817567237517,0.5777133624320144
0.8960877063564784,0.5786899994698235
1.503906727835743,0.5786899994698235
1.503906727835743,0.5767367253942053
1.1117535752930732,0.5728229428945406
0.42940341687645295,0.566963120667686
0.374522789143936,0.5581589186305476
0.4039067281418257,0.5483853139040282
0.3588207467419387,0.5376350721396999
0.3451082418762568,0.5268848303753715
0.33528298727383743,0.517103991300424
0.3451082418762568,0.5073303865739046
0.3588207467419387,0.49951005592300357
0.3646975345415166,0.4936429993477207
0.3843174354765659,0.4887598141586752
0.3646975345415166,0.48386939462120143
0.3646975345415166,0.4780023380459186
0.38039957694351395,0.4701892417434457
0.3999888696087737,0.46529882220597196
0.4098141242111931,0.4633455481303537
0.42548555834340096,0.4604084026684982
0.44510545927845024,0.45747849155507087
0.4706021480130775,0.4535647090554062
0.4999860870109672,0.4486815238663607
0.5451026766806437,0.4437911043288869
0.5960654458801087,0.4389079191398414
0.6509766818824151,0.4349941366401767
0.6960932715520916,0.4320642255267494
0.7254772105499813,0.42912708006489386
0.7509738992846084,0.42619716895146653
0.7548917578176605,0.4232672578380392
0.7450971114850305,0.4203301123761837
0.7313846066193487,0.41837683830056543
0.7000111300851435,0.41544692718713816
0.6509766818824151,0.414470290149329
0.5901886580805307,0.4115331446874735
0.5509794644802216,0.40957987061185525
0.5058934830803345,0.40762659653623706
0.44902331781150223,0.4056660881121906
0.4156909120107711,0.4037128140365724
0.38039957694351395,0.40078290292314506
0.3588207467419387,0.3978529918097178
0.34902610040930876,0.39589248338567135
0.3392008458068894,0.392962572272244
0.34902610040930876,0.3910092981966258
0.3549028882088867,0.3900326611588167
0.3646975345415166,0.38904878977257934
0.34902610040930876,0.38904878977257934
0.37057432234109455,0.38904878977257934
0.374522789143936,0.38904878977257934
0.38039957694351395,0.38904878977257934
0.38039957694351395,0.38904878977257934
0.3843174354765659,0.38807215273477025
0.38039957694351395,0.38807215273477025
0.3941120818091958,0.38709551569696116
0.39019422327614384,0.38709551569696116
0.39019422327614384,0.38709551569696116
0.3999888696087737,0.38709551569696116
0.38039957694351395,0.38807215273477025
0.39019422327614384,0.38807215273477025
0.39019422327614384,0.38904878977257934
0.37057432234109455,0.3910092981966258
0.3843174354765659,0.392962572272244
0.4039067281418257,0.39686912042348044
0.4156909120107711,0.4027361769987633
0.4156909120107711,0.4134864187630917
0.4039067281418257,0.42912708006489386
0.3843174354765659,0.4486815238663607
0.37057432234109455,0.4711658787812548
0.3646975345415166,0.49560350777176715
0.374522789143936,0.5210177738000886
0.3843174354765659,0.5444787657527919
0.39019422327614384,0.5679397577054951
0.374522789143936,0.5865103301207246
0.3588207467419387,0.6011743543847177
0.3549028882088867,0.6099713220734279
0.3451082418762568,0.6158383786487107
0.34902610040930876,0.618768289762138
0.34902610040930876,0.6207215638377562
0.2999916522065803,0.6216982008755654
0.2647003171393232,0.6207215638377562
0.8568479044863799,0.6168150156865198
1.503906727835743,0.6129012331868552
1.503906727835743,0.6080180479978096
1.1313734762281225,0.604104265498145
0.49019144067833725,0.598237208922862
0.42940341687645295,0.5914007496581983
0.4098141242111931,0.5835804190072973
0.374522789143936,0.5747834513185871
0.3588207467419387,0.5620727011302122
0.3451082418762568,0.5483853139040282
0.3392008458068894,0.5347051610262725
0.3646975345415166,0.523947684913516
0.374522789143936,0.5141740801869966
0.3646975345415166,0.5073303865739046
0.39019422327614384,0.5034238384226682
0.3843174354765659,0.5014633299986218
0.3941120818091958,0.4985334188851945
0.4039067281418257,0.49462687073395806
0.42548555834340096,0.4907130882342934
0.4392286714788723,0.48680654008305696
0.4607768934106581,0.4819161205455832
0.4706021480130775,0.4780023380459186
0.4999860870109672,0.47409578989468215
0.5392258888810657,0.4701892417434457
0.5745172239483228,0.46627545924378105
0.6254799931477878,0.46236891109254463
0.6647197950178864,0.45747849155507087
0.7058879178847215,0.451611434979788
0.7313846066193487,0.4477048868285516
0.7313846066193487,0.4428144672910778
0.7313846066193487,0.4389079191398414
0.7254772105499813,0.4349941366401767
0.6960932715520916,0.4330408625645585
0.654894540415467,0.4310875884889403
0.605890700482528,0.42815044302708477
0.5509794644802216,0.42619716895146653
0.5098113416133866,0.4232672578380392
0.4706021480130775,0.4203301123761837
0.42940341687645295,0.41837683830056543
0.3999888696087737,0.41544692718713816
0.38039957694351395,0.4134864187630917
0.38039957694351395,0.4115331446874735
0.374522789143936,0.4105565076496644
0.374522789143936,0.4115331446874735
0.3843174354765659,0.4115331446874735
0.3941120818091958,0.4115331446874735
0.4039067281418257,0.4105565076496644
0.4039067281418257,0.40957987061185525
0.419608770543823,0.40762659653623706
0.42548555834340096,0.40762659653623706
0.4392286714788723,0.40762659653623706
0.44902331781150223,0.40762659653623706
0.45490010561108013,0.40860323357404615
0.44902331781150223,0.40957987061185525
0.45490010561108013,0.40762659653623706
0.44902331781150223,0.4056660881121906
0.46469475194371007,0.40468945107438153
0.44902331781150223,0.4027361769987633
0.4392286714788723,0.4017595399609542
0.42940341687645295,0.4017595399609542
0.42548555834340096,0.4027361769987633
0.4352802046760309,0.40468945107438153
0.44510545927845024,0.40860323357404615
0.44510545927845024,0.41642356422494725
0.4352802046760309,0.4271738059892756
0.42548555834340096,0.4428144672910778
0.4039067281418257,0.46236891109254463
0.38039957694351395,0.4848460316590105
0.37057432234109455,0.5044004754604773
0.374522789143936,0.523947684913516
0.38039957694351395,0.545455402790601
0.38039957694351395,0.5689163947433042
0.374522789143936,0.5894402412341518
0.37057432234109455,0.6070414109600005
0.3549028882088867,0.6207215638377562
0.34902610040930876,0.6285418944886573
0.3549028882088867,0.6334323140261311
0.3646975345415166,0.6353855881017493
0.3039095107396323,0.6344089510639401
0.29411486440700235,0.6304951685642756
0.9372558292233135,0.6265886204130391
1.503906727835743,0.6216982008755654
1.503906727835743,0.6158383786487107
1.047047692958137,0.6109479591112369
0.4156909120107711,0.605080902535954
0.374522789143936,0.5992210803090994
0.3843174354765659,0.590416878271961
0.3549028882088867,0.5786899994698235
0.3235294116746816,0.5640259752058304
0.3196115531416296,0.5483853139040282
0.3294061994742595,0.5337212896400352
0.3235294116746816,0.5210177738000886
0.33528298727383743,0.5102675320357603
0.3392008458068894,0.5034238384226682
0.34902610040930876,0.4975567818473854
0.3549028882088867,0.4926663623099116
0.3588207467419387,0.4897364511964843
0.374522789143936,0.4848460316590105
0.3843174354765659,0.479962846469965
0.4039067281418257,0.47409578989468215
0.419608770543823,0.4692053703572084
0.4392286714788723,0.46529882220597196
0.4706021480130775,0.4604084026684982
0.5098113416133866,0.45454858044164353
0.5451026766806437,0.44965816090416977
0.6000139126829501,0.4437911043288869
0.6411820355497851,0.4389079191398414
0.6803912291500942,0.4349941366401767
0.7058879178847215,0.4320642255267494
0.7254772105499813,0.42912708006489386
0.7215593520169293,0.4271738059892756
0.6901858754827241,0.42522053191365744
0.6764733706170423,0.4232672578380392
0.6254799931477878,0.42130674941399276
0.5745172239483228,0.4193534753383746
0.5058934830803345,0.41740020126275634
0.44902331781150223,0.41642356422494725
0.3999888696087737,0.41544692718713816
0.3588207467419387,0.41544692718713816
0.3392008458068894,0.41544692718713816
0.31373476534205164,0.414470290149329
0.3039095107396323,0.414470290149329
0.3098169068089997,0.4134864187630917
0.3196115531416296,0.4115331446874735
0.3098169068089997,0.40957987061185525
0.3196115531416296,0.40860323357404615
0.33528298727383743,0.40957987061185525
0.33528298727383743,0.40957987061185525
0.33528298727383743,0.40957987061185525
0.3392008458068894,0.40957987061185525
0.3549028882088867,0.40762659653623706
0.3646975345415166,0.40762659653623706
0.3451082418762568,0.40664995949842797
0.3588207467419387,0.4056660881121906
0.3549028882088867,0.4037128140365724
0.3451082418762568,0.4027361769987633
0.3451082418762568,0.40078290292314506
0.33528298727383743,0.39980626588533597
0.33528298727383743,0.3978529918097178
0.33528298727383743,0.39589248338567135
0.3392008458068894,0.3949158463478622
0.3451082418762568,0.39589248338567135
0.3646975345415166,0.39686912042348044
0.3549028882088867,0.39980626588533597
0.3588207467419387,0.4056660881121906
0.33528298727383743,0.414470290149329
0.3196115531416296,0.4271738059892756
0.31373476534205164,0.4437911043288869
0.3235294116746816,0.46529882220597196
0.3392008458068894,0.48778317712086605
0.34902610040930876,0.5102675320357603
0.33528298727383743,0.5307913785266078
0.33528298727383743,0.5493619509418374
0.3196115531416296,0.566963120667686
0.3196115531416296,0.5816199105832508
0.3294061994742595,0.5923773866960075
0.33528298727383743,0.598237208922862
0.3039095107396323,0.6001977173469085
0.28432021807437247,0.6011743543847177
0.8313818240215421,0.6021509914225267
1.503906727835743,0.6021509914225267
1.503906727835743,0.6021509914225267
1.227452835097264,0.5992210803090994
0.3941120818091958,0.5943306607716257
0.2901970058739504,0.5865103301207246
0.31373476534205164,0.5757600883563961
0.3098169068089997,0.5620727011302122
0.29411486440700235,0.545455402790601
0.2784434302747945,0.5298147414887988
0.27449496347195307,0.5180806283382331
0.28432021807437247,0.5063537495360956
0.2999916522065803,0.49560350777176715
0.3294061994742595,0.48680654008305696
0.3451082418762568,0.47898620943215586
0.3549028882088867,0.473119152856873
0.3588207467419387,0.4692053703572084
0.374522789143936,0.46529882220597196
0.39019422327614384,0.4613850397063073
0.419608770543823,0.45845512859287996
0.44510545927845024,0.4555252174794526
0.46469475194371007,0.4535647090554062
0.49410929921138924,0.45063479794197886
0.5294006342786464,0.4486815238663607
0.5745172239483228,0.44672824979074244
0.6293978516808398,0.4428144672910778
0.6901858754827241,0.4398845561776505
0.7313846066193487,0.4359707736779858
0.7666759416866058,0.4320642255267494
0.7764705880192357,0.42912708006489386
0.7607991538870279,0.4271738059892756
0.7509738992846084,0.42522053191365744
0.7156825642173513,0.42130674941399276
0.6647197950178864,0.41544692718713816
0.5960654458801087,0.4115331446874735
0.5392258888810657,0.40860323357404615
0.48431465287875936,0.40664995949842797
0.419608770543823,0.4037128140365724
0.38039957694351395,0.40078290292314506
0.3549028882088867,0.3988296288475269
0.33528298727383743,0.3978529918097178
0.3294061994742595,0.39686912042348044
0.3196115531416296,0.3949158463478622
0.31373476534205164,0.392962572272244
0.3235294116746816,0.39198593523443487
0.3196115531416296,0.3900326611588167
0.3294061994742595,0.38904878977257934
0.33528298727383743,0.38904878977257934
0.34902610040930876,0.38904878977257934
0.3549028882088867,0.38904878977257934
0.374522789143936,0.38807215273477025
0.3843174354765659,0.38709551569696116
0.38039957694351395,0.386118878659152
0.3941120818091958,0.3841656045835338
0.39019422327614384,0.3841656045835338
0.3999888696087737,0.3831889675457247
0.38039957694351395,0.3812284591216783
0.38039957694351395,0.37829854800825097
0.37057432234109455,0.37634527393263273
0.3549028882088867,0.3743919998570145
0.3549028882088867,0.3724314914329681
0.3646975345415166,0.37047821735734987
0.38039957694351395,0.3695015803195408
0.3941120818091958,0.3695015803195408
0.4039067281418257,0.3734081284707772
0.4098141242111931,0.38025182208386915
0.3999888696087737,0.39198593523443487
0.374522789143936,0.40762659653623706
0.3451082418762568,0.4271738059892756
0.3451082418762568,0.4486815238663607
0.34902610040930876,0.4701892417434457
0.3646975345415166,0.4897364511964843
0.37057432234109455,0.5053771124982864
0.3588207467419387,0.5219944108378977
0.37057432234109455,0.5356817980640817
0.34902610040930876,0.545455402790601
0.3588207467419387,0.553275733441502
0.3549028882088867,0.5581589186305476
0.34902610040930876,0.5610960640924031
0.2784434302747945,0.5620727011302122
0.45490010561108013,0.5610960640924031
1.2078329341622147,0.5591427900167849
1.503906727835743,0.5571822815927384
1.503906727835743,0.553275733441502
0.845094328887224,0.5474086768662192
0.4706021480130775,0.5415416202909363
0.44510545927845024,0.5327446526022261
0.4098141242111931,0.5219944108378977
0.39019422327614384,0.5102675320357603
0.34902610040930876,0.4985334188851945
0.3451082418762568,0.48778317712086605
0.3588207467419387,0.479962846469965
0.3646975345415166,0.4721425158190639
0.3588207467419387,0.46725209628159015
0.3843174354765659,0.4633455481303537
0.3941120818091958,0.4613850397063073
0.39019422327614384,0.4604084026684982
0.419608770543823,0.45943176563068905
0.42548555834340096,0.4565018545172618
0.4352802046760309,0.45454858044164353
0.44902331781150223,0.45063479794197886
0.4607768934106581,0.44574437840450515
0.49410929921138924,0.44183783025326867
0.5156881294129645,0.43694741071579496
0.5451026766806437,0.4330408625645585
0.60980855901558,0.42815044302708477
0.6509766818824151,0.42424389487584835
0.6862680169496722,0.42130674941399276
0.7215593520169293,0.4193534753383746
0.7353024651524006,0.41740020126275634
0.7411792529519786,0.41642356422494725
0.7450971114850305,0.414470290149329
0.7254772105499813,0.4115331446874735
0.6960932715520916,0.40860323357404615
0.6509766818824151,0.40664995949842797
0.605890700482528,0.4056660881121906
0.5509794644802216,0.4056660881121906
0.5058934830803345,0.4056660881121906
0.4607768934106581,0.4056660881121906
0.42548555834340096,0.40468945107438153
0.4039067281418257,0.4037128140365724
0.3843174354765659,0.4027361769987633
0.3999888696087737,0.4027361769987633
0.38039957694351395,0.4017595399609542
0.374522789143936,0.4017595399609542
0.37057432234109455,0.4027361769987633
0.38039957694351395,0.40468945107438153
0.38039957694351395,0.40664995949842797
0.38039957694351395,0.40957987061185525
0.3843174354765659,0.4105565076496644
0.3843174354765659,0.40957987061185525
0.4039067281418257,0.40860323357404615
0.4039067281418257,0.4056660881121906
0.4098141242111931,0.40468945107438153
0.4039067281418257,0.40468945107438153
0.4039067281418257,0.40468945107438153
0.3999888696087737,0.4056660881121906
0.3941120818091958,0.4056660881121906
0.4098141242111931,0.40468945107438153
0.3999888696087737,0.4027361769987633
0.4039067281418257,0.40078290292314506
0.4039067281418257,0.39980626588533597
0.4098141242111931,0.40078290292314506
0.42940341687645295,0.4056660881121906
0.4392286714788723,0.41544692718713816
0.419608770543823,0.42912708006489386
0.4156909120107711,0.44574437840450515
0.39019422327614384,0.4643221851681628
0.3646975345415166,0.4887598141586752
0.3588207467419387,0.5131974431491875
0.374522789143936,0.538611709177509
0.38039957694351395,0.5610960640924031
0.3843174354765659,0.5806432735454417
0.38039957694351395,0.597260571885053
0.3588207467419387,0.6099713220734279
0.3549028882088867,0.6207215638377562
0.3549028882088867,0.6265886204130391
0.3588207467419387,0.6295185315264664
0.37057432234109455,0.6314790399505128
0.29411486440700235,0.6314790399505128
0.4607768934106581,0.6295185315264664
1.1509933771631717,0.6256119833752299
1.503906727835743,0.6216982008755654
1.503906727835743,0.6158383786487107
0.8215565694191228,0.6109479591112369
0.44510545927845024,0.604104265498145
0.42548555834340096,0.5962839348472438
0.4392286714788723,0.5865103301207246
0.42548555834340096,0.5747834513185871
0.3999888696087737,0.5610960640924031
0.3843174354765659,0.54643203982841
0.3999888696087737,0.5327446526022261
0.4352802046760309,0.5210177738000886
0.44902331781150223,0.5102675320357603
0.44902331781150223,0.5014633299986218
0.46469475194371007,0.49560350777176715
0.4706021480130775,0.4926663623099116
0.4745200065461294,0.49168972527210253
0.48039679434570737,0.4907130882342934
0.49019144067833725,0.4907130882342934
0.4999860870109672,0.4887598141586752
0.5098113416133866,0.4858226686968196
0.5254827757455944,0.4809394835077741
0.5509794644802216,0.47604906397030033
0.5843118702809528,0.4711658787812548
0.60980855901558,0.46725209628159015
0.6647197950178864,0.46236891109254463
0.7058879178847215,0.45845512859287996
0.7353024651524006,0.4535647090554062
0.7548917578176605,0.4486815238663607
0.7509738992846084,0.4428144672910778
0.7548917578176605,0.43792404775360405
0.7313846066193487,0.4320642255267494
0.6960932715520916,0.4271738059892756
0.654894540415467,0.4222906208002301
0.5901886580805307,0.4193534753383746
0.5353080303480138,0.4193534753383746
0.49410929921138924,0.4193534753383746
0.44902331781150223,0.4193534753383746
0.4039067281418257,0.41837683830056543
0.38039957694351395,0.41642356422494725
0.3646975345415166,0.414470290149329
0.3588207467419387,0.4125097817252826
0.3588207467419387,0.4105565076496644
0.3588207467419387,0.40957987061185525
0.3646975345415166,0.40762659653623706
0.38039957694351395,0.40762659653623706
0.38039957694351395,0.40664995949842797
0.3843174354765659,0.4056660881121906
0.39019422327614384,0.4056660881121906
0.3941120818091958,0.4056660881121906
0.39019422327614384,0.40468945107438153
0.38039957694351395,0.4027361769987633
0.38039957694351395,0.40078290292314506
0.3843174354765659,0.3978529918097178
0.38039957694351395,0.3949158463478622
0.374522789143936,0.392962572272244
0.3588207467419387,0.3900326611588167
0.3392008458068894,0.38709551569696116
0.3451082418762568,0.3841656045835338
0.33528298727383743,0.3822123305079156
0.3392008458068894,0.38025182208386915
0.37057432234109455,0.3812284591216783
0.37057432234109455,0.3831889675457247
0.3588207467419387,0.38807215273477025
0.3646975345415166,0.39686912042348044
0.34902610040930876,0.40957987061185525
0.33528298727383743,0.42522053191365744
0.3235294116746816,0.444767741366696
0.3294061994742595,0.46725209628159015
0.33528298727383743,0.4907130882342934
0.3451082418762568,0.5131974431491875
0.33528298727383743,0.5337212896400352
0.3196115531416296,0.553275733441502
0.31373476534205164,0.5689163947433042
0.3098169068089997,0.5796666365076326
0.3235294116746816,0.5884636041963428
0.3235294116746816,0.5943306607716257
0.2901970058739504,0.597260571885053
0.2647003171393232,0.5992210803090994
0.8352996825545941,0.5992210803090994
1.503906727835743,0.5962839348472438
1.503906727835743,0.5933540237338165
1.1666648112953795,0.590416878271961
0.3941120818091958,0.5845570560451063
0.3098169068089997,0.5777133624320144
0.3294061994742595,0.5708696688189224
0.31373476534205164,0.5610960640924031
0.3098169068089997,0.5493619509418374
0.3098169068089997,0.5366584351018908
0.3098169068089997,0.5229710478757068
0.3196115531416296,0.5102675320357603
0.33528298727383743,0.49951005592300357
0.3451082418762568,0.4907130882342934
0.3392008458068894,0.48386939462120143
0.3549028882088867,0.4770257010081094
0.3549028882088867,0.473119152856873
0.3549028882088867,0.4701892417434457
0.37057432234109455,0.46822873331939924
0.39019422327614384,0.46529882220597196
0.4039067281418257,0.46236891109254463
0.4352802046760309,0.45943176563068905
0.46469475194371007,0.4565018545172618
0.5058934830803345,0.4525880720175971
0.5353080303480138,0.4477048868285516
0.5960654458801087,0.4437911043288869
0.6509766818824151,0.4398845561776505
0.6960932715520916,0.4349941366401767
0.7254772105499813,0.42912708006489386
0.7313846066193487,0.42522053191365744
0.7313846066193487,0.42130674941399276
0.7156825642173513,0.41837683830056543
0.6803912291500942,0.41642356422494725
0.6293978516808398,0.414470290149329
0.5705993654152709,0.4115331446874735
0.5058934830803345,0.40957987061185525
0.4352802046760309,0.40664995949842797
0.3843174354765659,0.4037128140365724
0.3451082418762568,0.40078290292314506
0.3098169068089997,0.3978529918097178
0.28432021807437247,0.39589248338567135
0.2784434302747945,0.3949158463478622
0.27449496347195307,0.3939392093100531
0.26861817567237517,0.392962572272244
0.27449496347195307,0.3939392093100531
0.26861817567237517,0.3939392093100531
0.28432021807437247,0.392962572272244
0.28432021807437247,0.392962572272244
0.29411486440700235,0.3949158463478622
0.3039095107396323,0.39589248338567135
0.31373476534205164,0.39686912042348044
0.3294061994742595,0.39686912042348044
0.3294061994742595,0.39589248338567135
0.3235294116746816,0.3939392093100531
0.33528298727383743,0.3939392093100531
0.3235294116746816,0.392962572272244
0.3196115531416296,0.392962572272244
0.3196115531416296,0.392962572272244
0.31373476534205164,0.39198593523443487
0.31373476534205164,0.3910092981966258
0.3235294116746816,0.38807215273477025
0.34902610040930876,0.38709551569696116
0.37057432234109455,0.386118878659152
0.38039957694351395,0.38807215273477025
0.37057432234109455,0.3900326611588167
0.3646975345415166,0.3949158463478622
0.3392008458068894,0.40468945107438153
0.3196115531416296,0.41837683830056543
0.3294061994742595,0.4330408625645585
0.33528298727383743,0.4477048868285516
0.3549028882088867,0.46822873331939924
0.34902610040930876,0.4897364511964843
0.3451082418762568,0.5102675320357603
0.3549028882088867,0.5288381044509897
0.3294061994742595,0.5444787657527919
0.33528298727383743,0.5571822815927384
0.33528298727383743,0.5659792492814486
0.3235294116746816,0.5728229428945406
0.23920362840469597,0.5777133624320144
0.4156909120107711,0.5806432735454417
1.1960793585630587,0.5816199105832508
1.503906727835743,0.5816199105832508
1.503906727835743,0.5806432735454417
0.8215565694191228,0.5786899994698235
0.39019422327614384,0.5737995799323498
0.374522789143936,0.5659792492814486
0.3843174354765659,0.5562056445549294
0.3549028882088867,0.5444787657527919
0.3392008458068894,0.5298147414887988
0.33528298727383743,0.5151507172248058
0.3588207467419387,0.5034238384226682
0.374522789143936,0.49168972527210253
0.38039957694351395,0.4819161205455832
0.37057432234109455,0.47409578989468215
0.38039957694351395,0.46822873331939924
0.38039957694351395,0.4633455481303537
0.4039067281418257,0.4604084026684982
0.42548555834340096,0.45845512859287996
0.4392286714788723,0.45845512859287996
0.44902331781150223,0.45747849155507087
0.4706021480130775,0.4565018545172618
0.49410929921138924,0.4525880720175971
0.5353080303480138,0.4486815238663607
0.5646919693459035,0.4437911043288869
0.60980855901558,0.4389079191398414
0.654894540415467,0.43401749960236763
0.7098057764177734,0.42912708006489386
0.7509738992846084,0.42619716895146653
0.7764705880192357,0.4232672578380392
0.7803884465522877,0.4203301123761837
0.7666759416866058,0.41740020126275634
0.7548917578176605,0.414470290149329
0.7156825642173513,0.4125097817252826
0.6647197950178864,0.40957987061185525
0.605890700482528,0.40664995949842797
0.5509794644802216,0.40468945107438153
0.4999860870109672,0.4027361769987633
0.45490010561108013,0.40078290292314506
0.4156909120107711,0.39980626588533597
0.3843174354765659,0.3978529918097178
0.3588207467419387,0.39589248338567135
0.3549028882088867,0.3939392093100531
0.3549028882088867,0.39198593523443487
0.3549028882088867,0.3910092981966258
0.3588207467419387,0.38904878977257934
0.3588207467419387,0.38807215273477025
0.3646975345415166,0.386118878659152
0.38039957694351395,0.3851422416213429
0.3843174354765659,0.3831889675457247
0.39019422327614384,0.3822123305079156
0.39019422327614384,0.3831889675457247
0.3941120818091958,0.3841656045835338
0.3941120818091958,0.3841656045835338
0.39019422327614384,0.3851422416213429
0.3941120818091958,0.38709551569696116
0.38039957694351395,0.38904878977257934
0.38039957694351395,0.38904878977257934
0.37057432234109455,0.38807215273477025
0.3588207467419387,0.386118878659152
0.3549028882088867,0.3831889675457247
0.37057432234109455,0.3822123305079156
0.39019422327614384,0.3812284591216783
0.3999888696087737,0.3841656045835338
0.4156909120107711,0.38904878977257934
0.4039067281418257,0.3988296288475269
0.3999888696087737,0.414470290149329
0.37057432234109455,0.43401749960236763
0.3451082418762568,0.45747849155507087
0.34902610040930876,0.4809394835077741
0.3549028882088867,0.5044004754604773
0.37057432234109455,0.5268848303753715
0.38039957694351395,0.5474086768662192
0.3646975345415166,0.5640259752058304
0.34902610040930876,0.5767367253942053
0.3549028882088867,0.5855336930829155
0.34902610040930876,0.5923773866960075
0.3549028882088867,0.5962839348472438
0.3588207467419387,0.597260571885053
0.27449496347195307,0.598237208922862
0.4352802046760309,0.598237208922862
1.1176609713624406,0.597260571885053
1.503906727835743,0.5943306607716257
1.503906727835743,0.590416878271961
0.845094328887224,0.5865103301207246
0.4352802046760309,0.5816199105832508
0.419608770543823,0.5747834513185871
0.3941120818091958,0.5659792492814486
0.38039957694351395,0.5542523704793112
0.3549028882088867,0.5425254916771737
0.3392008458068894,0.5307913785266078
0.34902610040930876,0.5200411367622795
0.374522789143936,0.5102675320357603
0.3646975345415166,0.5034238384226682
0.39019422327614384,0.4975567818473854
0.3999888696087737,0.4926663623099116
0.3843174354765659,0.4887598141586752
0.4039067281418257,0.48778317712086605
0.419608770543823,0.4848460316590105
0.4352802046760309,0.4819161205455832
0.44902331781150223,0.47898620943215586
0.46469475194371007,0.47604906397030033
0.49019144067833725,0.473119152856873
0.5156881294129645,0.4701892417434457
0.5451026766806437,0.46725209628159015
0.5901886580805307,0.4633455481303537
0.6353052477502072,0.45943176563068905
0.6647197950178864,0.4555252174794526
0.7058879178847215,0.451611434979788
0.7353024651524006,0.44672824979074244
0.7313846066193487,0.4428144672910778
0.7313846066193487,0.4389079191398414
0.7098057764177734,0.4359707736779858
0.6803912291500942,0.4330408625645585
0.6293978516808398,0.4310875884889403
0.5843118702809528,0.42815044302708477
0.5294006342786464,0.42522053191365744
0.49410929921138924,0.4222906208002301
0.4352802046760309,0.4203301123761837
0.4039067281418257,0.41837683830056543
0.3941120818091958,0.41642356422494725
0.38039957694351395,0.414470290149329
0.3646975345415166,0.414470290149329
0.3588207467419387,0.4134864187630917
0.3646975345415166,0.4134864187630917
0.3588207467419387,0.4125097817252826
