Sample,ECG,ECG_Filtered,ECG_Normalized
0,0.7254772105499813,-0.0337335931529741,-0.1379067389303713
1,0.6705965828174644,-0.0836671293689282,-0.3520734385691276
2,0.60980855901558,-0.1397934045308396,-0.5928010141699656
3,0.5509794644802216,-0.1931323768674324,-0.8215737495525868
4,0.4999860870109672,-0.2388607589283038,-1.0177043945652235
5,0.4549001056110801,-0.2817527893323023,-1.2016698271895316
6,0.4098141242111931,-0.3169102030893357,-1.352461215959076
7,0.3901942232761438,-0.3364157999120924,-1.4361214093398784
8,0.374522789143936,-0.345743931090666,-1.4761300932767107
9,0.3588207467419387,-0.3533110309051239,-1.508585651522988
10,0.3549028882088867,-0.3584263620663603,-1.530525487460569
11,0.3490261004093087,-0.3547132393152496,-1.5145997728963183
12,0.3549028882088867,-0.3432649838736892,-1.4654978011485804
13,0.3646975345415166,-0.335496187403923,-1.432177158827169
14,0.3549028882088867,-0.3314173926120566,-1.4146830639707613
15,0.3646975345415166,-0.3216454708335201,-1.3727709464835045
16,0.374522789143936,-0.3102577879766435,-1.3239287726898756
17,0.3705743223410945,-0.2999072843289773,-1.279535097140189
18,0.3901942232761438,-0.2855806494874391,-1.2180876545302362
19,0.3901942232761438,-0.2750110648314176,-1.1727543328014756
20,0.3901942232761438,-0.2716135963716303,-1.158182470636285
21,0.3941120818091958,-0.2631136019557186,-1.1217256945103031
22,0.4039067281418257,-0.2497687566968595,-1.0644891820806746
23,0.4039067281418257,-0.2429356390208954,-1.0351816991382408
24,0.3999888696087737,-0.2434076048988138,-1.0372059774504905
25,0.3941120818091958,-0.2461346304982337,-1.0489022865188546
26,0.3843174354765659,-0.2477245444528361,-1.0557214835990327
27,0.3843174354765659,-0.2471389847218772,-1.0532099972408775
28,0.3803995769435139,-0.2438370893902784,-1.0390480515965153
29,0.3901942232761438,-0.2314815167472478,-0.9860545643405636
30,0.4039067281418257,-0.2103924772948286,-0.8956029296207083
31,0.419608770543823,-0.1949505155134669,-0.8293718103913558
32,0.419608770543823,-0.1864641548582244,-0.7929735099461978
33,0.4254855583434009,-0.1763432448447079,-0.7495645695987461
34,0.4254855583434009,-0.1765738788097738,-0.7505537668170071
35,0.3999888696087737,-0.1924897913883998,-0.8188176777477577
36,0.3901942232761438,-0.1994130172746371,-0.8485116379851523
37,0.4039067281418257,-0.1847342948454425,-0.7855540792819583
38,0.419608770543823,-0.1616567194162882,-0.6865735435564055
39,0.4294034168764529,-0.1456818890862169,-0.6180569323097269
40,0.4352802046760309,-0.1428993891970097,-0.6061226920540506
41,0.4294034168764529,-0.1404615338670403,-0.5956666444799659
42,0.4156909120107711,-0.1422655035598885,-0.603403934178311
43,0.4098141242111931,-0.1618940830578276,-0.6875916045946399
44,0.4156909120107711,-0.1458664025080494,-0.6188483168898619
45,0.419608770543823,-0.1086699337312931,-0.4593113491557667
46,0.4039067281418257,-0.178246714597042,-0.7577286185648865
47,0.3490261004093087,-0.1999785209150459,-0.8509371030628962
48,0.654894540415467,0.1824720869749101,0.7894070558684665
49,1.503906727835743,0.8271643007156144,3.5545147202348346
50,1.503906727835743,1.1370157700700383,4.883478611012787
51,1.503906727835743,0.8220627634834561,3.532634046946038
52,0.6607713282150449,0.2235087227201518,0.9654146353001868
53,0.4294034168764529,-0.1190833498482867,-0.5039748585074033
54,0.419608770543823,-0.1209590484024762,-0.5120197958242922
55,0.4039067281418257,-0.0901350645917703,-0.3798146410780493
56,0.3843174354765659,-0.138630751755288,-0.5878143553703796
57,0.3490261004093087,-0.1678371028810928,-0.7130814264236364
58,0.3392008458068894,-0.163301164220159,-0.6936266253742036
59,0.3549028882088867,-0.148928246679727,-0.6319806746347725
60,0.3803995769435139,-0.1277883959382508,-0.5413111085023558
61,0.3803995769435139,-0.1143392680179426,-0.483627324056271
62,0.3901942232761438,-0.1041507642567685,-0.4399284717388473
63,0.4039067281418257,-0.09399463236089,-0.3963684634945034
64,0.3941120818091958,-0.0925790344166568,-0.3902969139366941
65,0.4039067281418257,-0.082387076736765,-0.346583247639956
66,0.4294034168764529,-0.057903123203347,-0.2415707065757119
67,0.4352802046760309,-0.0445409513514736,-0.1842598797769627
68,0.4392286714788723,-0.038739580503026,-0.1593775954016066
69,0.4607768934106581,-0.0175837347923984,-0.0686394262818276
70,0.4843146528787593,0.0128268123598238,0.0617924840405837
71,0.5156881294129645,0.0430421827881404,0.191387274503821
72,0.5509794644802216,0.0840506971190878,0.3672742401968601
73,0.605890700482528,0.138453622556178,0.6006103079883555
74,0.654894540415467,0.1920074442339365,0.8303045397800838
75,0.6960932715520916,0.2348824526191843,1.01419696436504
76,0.7254772105499813,0.2657614355286378,1.1466380121874498
77,0.7411792529519786,0.2853958724199988,1.2308508051709497
78,0.7509738992846084,0.295099951206389,1.272471941669823
79,0.7411792529519786,0.2904508783381085,1.252531904011092
80,0.7156825642173513,0.2634500507468189,1.1367244012591848
81,0.6647197950178864,0.2172091724544813,0.9383956418170848
82,0.605890700482528,0.1607838510926026,0.6963854465073299
83,0.5451026766806437,0.0973607897380245,0.4243616973269856
84,0.4745200065461294,0.0355610756934099,0.159300542068264
85,0.4294034168764529,-0.0135399219167596,-0.05129537009909
86,0.3843174354765659,-0.0544485141770324,-0.2267537665034471
87,0.3451082418762568,-0.0916580904468651,-0.3863469527380821
88,0.3196115531416296,-0.1161379170711089,-0.4913417933431854
89,0.3098169068089997,-0.1245528641257398,-0.527433798334199
90,0.3098169068089997,-0.1229097228358423,-0.5203863073338504
91,0.3098169068089997,-0.1198441079491556,-0.507237776859148
92,0.3039095107396323,-0.1267044049732639,-0.5366618329852876
93,0.2941148644070023,-0.135269517897439,-0.5733979046920965
94,0.2999916522065803,-0.1226813534903095,-0.5194068231487148
95,0.3294061994742595,-0.1001871635188148,-0.422928448246378
96,0.3294061994742595,-0.0943061916535254,-0.3977047522996249
97,0.3235294116746816,-0.0951258409503555,-0.4012202570698888
98,0.3392008458068894,-0.0891114481914195,-0.3754243142001145
99,0.3294061994742595,-0.0863687363721935,-0.3636607263812296
100,0.3352829872738374,-0.0859394749613209,-0.3618196090357394
101,0.3392008458068894,-0.0802441622813144,-0.337392211889009
102,0.3392008458068894,-0.077046334197123,-0.3236766143426735
103,0.3392008458068894,-0.0782902303417934,-0.3290117288205525
104,0.3392008458068894,-0.0768560100590972,-0.3228603073956491
105,0.3352829872738374,-0.0782644983595465,-0.3289013634402769
106,0.3294061994742595,-0.0873705504097187,-0.3679575421553145
107,0.3196115531416296,-0.091234310980729,-0.3845293476470963
108,0.3294061994742595,-0.0843444428636715,-0.3549784600593464
109,0.3352829872738374,-0.077973143956288,-0.327651734118988
110,0.3392008458068894,-0.0705688869258489,-0.2958946143222222
111,0.3549028882088867,-0.0557850235748747,-0.2324861024937151
112,0.3646975345415166,-0.0487809939277811,-0.2024455720733847
113,0.3451082418762568,-0.0601421161836157,-0.2511738265114733
114,0.3352829872738374,-0.078096277420581,-0.3281798578943335
115,0.3137347653420516,-0.0930354247345522,-0.3922543881221396
116,0.3098169068089997,-0.1000328272429441,-0.4222664945106199
117,0.3137347653420516,-0.0929892450741496,-0.3920563219283878
118,0.3294061994742595,-0.0819244203015934,-0.3445988978562995
119,0.3196115531416296,-0.0817125309999441,-0.3436900971611768
120,0.3352829872738374,-0.0828945984450981,-0.3487600261640853
121,0.3098169068089997,-0.0844830378014408,-0.3555728986402696
122,0.3098169068089997,-0.1055319375594393,-0.445852372793699
123,0.3039095107396323,-0.1093693352151434,-0.4623111068110399
124,0.3098169068089997,-0.0767267522283909,-0.3223059159965479
125,0.3137347653420516,-0.1099016816062915,-0.464594359276151
126,0.2647003171393232,-0.155973324848144,-0.6621972636121989
127,0.4549001056110801,0.1043437742757427,0.4543119645302473
128,1.2078329341622147,0.7148723423451291,3.072890546529797
129,1.503906727835743,1.1829268498184906,5.080392852857253
130,1.503906727835743,1.039696837271985,4.466074272582103
131,0.8255050362219641,0.4305668218049058,1.853494132067088
132,0.3352829872738374,-0.0497100429055721,-0.2064302959374376
133,0.3137347653420516,-0.1226886655004432,-0.5194381846183148
134,0.3352829872738374,-0.0619646415357874,-0.258990702087729
135,0.3137347653420516,-0.0860329485027042,-0.3622205203546379
136,0.3098169068089997,-0.1122548968664603,-0.4746873826028042
137,0.3039095107396323,-0.0983273058779549,-0.4149514531659931
138,0.3098169068089997,-0.0972449871981936,-0.4103093501392943
139,0.3137347653420516,-0.1026394466878591,-0.4334463773316024
140,0.3098169068089997,-0.0927866596618084,-0.3911874259429637
141,0.3352829872738374,-0.080764564806007,-0.339624236689237
142,0.3352829872738374,-0.0725836020880009,-0.3045357987783791
143,0.3490261004093087,-0.062085646785947,-0.2595096978775238
144,0.3646975345415166,-0.0496601786850956,-0.2062164265354524
145,0.374522789143936,-0.0342469950546818,-0.1401087378114734
146,0.4039067281418257,-0.0115736616404153,-0.0428620103587698
147,0.4254855583434009,0.0133070263285424,0.0638521387054587
148,0.4490233178115022,0.0355954386180888,0.1594479258653295
149,0.4803967943457073,0.0639469575501472,0.2810485914613831
150,0.5156881294129645,0.1042742109617985,0.4540136050209401
151,0.5705993654152709,0.1499316529859127,0.6498399857115222
152,0.60980855901558,0.1987075055039167,0.8590413390999493
153,0.6764733706170423,0.2556273914613283,1.1031727394196071
154,0.7313846066193487,0.3151898516170284,1.3586382337667808
155,0.7764705880192357,0.3593711629212728,1.5481334376878535
156,0.800008347487337,0.378250579452339,1.6291079216914912
157,0.800008347487337,0.382530109041078,1.6474629751782457
158,0.800008347487337,0.3795962080768465,1.6348793703668634
159,0.7764705880192357,0.3532186346916581,1.5217450269077284
160,0.7156825642173513,0.2959520023204386,1.2761264189780257
161,0.6509766818824151,0.2278221930834765,0.983915261967354
162,0.5843118702809528,0.1594707915267439,0.6907536876742912
163,0.5058934830803345,0.0839651829667075,0.3669074669783865
164,0.4352802046760309,0.007907374657088,0.0406928420621579
165,0.3705743223410945,-0.0531599177749751,-0.2212269310435781
166,0.3294061994742595,-0.0987356967121914,-0.4167030558714951
167,0.2901970058739504,-0.1367306013653186,-0.5796645432666052
168,0.2588235293397452,-0.1687639307247807,-0.717056623765108
169,0.2392036284046959,-0.1913282380181794,-0.8138357343364497
170,0.229408982072066,-0.1993104482689737,-0.8480717158988584
171,0.2392036284046959,-0.1917263934350205,-0.815543436975401
172,0.2549056708066933,-0.177838467622626,-0.7559776328792333
173,0.2647003171393232,-0.1658877942297433,-0.7047207728013638
174,0.2843202180743724,-0.1511145118119736,-0.6413576429689106
175,0.3039095107396323,-0.1286303418523346,-0.5449222442511604
176,0.3294061994742595,-0.1063333460266056,-0.449289642001577
177,0.3451082418762568,-0.0916225142055043,-0.3861943649829341
178,0.3549028882088867,-0.0801996592537228,-0.3372013368325739
179,0.3705743223410945,-0.0684359478178121,-0.2867463631884937
180,0.3803995769435139,-0.0588095209510972,-0.2454582785144611
181,0.3843174354765659,-0.0522597500209537,-0.2173660797678697
182,0.3941120818091958,-0.050262387251577,-0.2087993203369192
183,0.3843174354765659,-0.0537441706322333,-0.2237328121742945
184,0.3843174354765659,-0.0588100998480927,-0.2454607614241117
185,0.3803995769435139,-0.0635139230415508,-0.2656356251603853
186,0.374522789143936,-0.0681991139889658,-0.2857305745356041
187,0.3705743223410945,-0.0739632112785963,-0.3104529913013215
188,0.3646975345415166,-0.0828041146231834,-0.3483719378575339
189,0.3588207467419387,-0.0856328726624404,-0.3605045809518299
190,0.374522789143936,-0.0738364660966089,-0.30990937674128
191,0.3843174354765659,-0.063649436180226,-0.2662168457961969
192,0.3803995769435139,-0.0704852803084668,-0.2955360225886977
193,0.3588207467419387,-0.0867016770094329,-0.3650887205281855
194,0.3490261004093087,-0.1080171098601466,-0.4565113645257142
195,0.3137347653420516,-0.1329524312842004,-0.5634598384075802
196,0.3098169068089997,-0.1447403695293647,-0.6140187216918305
197,0.3196115531416296,-0.1345868106532432,-0.57046974922006
198,0.3352829872738374,-0.1179225718531041,-0.4989962407070057
199,0.3392008458068894,-0.1150761536505323,-0.4867878525487941
200,0.3352829872738374,-0.1231465953641556,-0.5214022619701203
201,0.3352829872738374,-0.121821588139762,-0.515719259207836
202,0.3235294116746816,-0.1258822479769302,-0.5331355726033232
203,0.3294061994742595,-0.1432335895769476,-0.607556089281913
204,0.3352829872738374,-0.1174837967592353,-0.4971143188392822
205,0.3451082418762568,-0.0984244085590177,-0.4153679299930969
206,0.2999916522065803,-0.1961009819448911,-0.8343062015307635
207,0.2588235293397452,-0.180642069053478,-0.7680023783919738
208,0.7156825642173513,0.2819932839082228,1.2162569829220262
209,1.503906727835743,0.9466777531832123,4.067112137063503
210,1.503906727835743,1.1807345976223134,5.070990205794555
211,1.3784434299687118,0.7673802456606802,3.29809879754186
212,0.5196059879460164,0.1606202320112079,0.6956836784909676
213,0.4039067281418257,-0.1040776137367467,-0.4396147265760338
214,0.4098141242111931,-0.0683133177354128,-0.2862203984358613
215,0.3705743223410945,-0.0685838046527687,-0.2873805263734269
216,0.3549028882088867,-0.1305116520829214,-0.5529912502462269
217,0.3352829872738374,-0.1336149986310223,-0.5663016131487794
218,0.3549028882088867,-0.1086817570005163,-0.459362059574863
219,0.3705743223410945,-0.1017880162953416,-0.4297945623199641
220,0.374522789143936,-0.1015015793847204,-0.4285660242981994
221,0.3646975345415166,-0.0998725698855439,-0.4215791450471492
222,0.3803995769435139,-0.0958867562493639,-0.4044838496500033
223,0.3803995769435139,-0.0940573802949874,-0.3966375915990436
224,0.3803995769435139,-0.0899620943369561,-0.3790727655487653
225,0.3999888696087737,-0.0746726032676214,-0.3134955985859852
226,0.419608770543823,-0.0602739042593942,-0.2517390702210146
227,0.419608770543823,-0.0478822616072716,-0.1985908774226842
228,0.4607768934106581,-0.022860537271395,-0.0912718184017198
229,0.4745200065461294,0.0034933141650741,0.0217607807818996
230,0.5058934830803345,0.0229279547119805,0.1051166401906035
231,0.5254827757455944,0.0553779320076334,0.2442957383963917
232,0.5901886580805307,0.102684171728458,0.4471938706158316
233,0.6196032053482099,0.1483399677090429,0.6430131913676062
234,0.6764733706170423,0.1935869118135425,0.8370789319891129
235,0.7215593520169293,0.2403866123818442,1.0378044999009806
236,0.7509738992846084,0.2750787951340367,1.1866004964666663
237,0.7764705880192357,0.2901765153564609,1.2513551514969423
238,0.7705938002196577,0.2931738382102387,1.264210775031578
239,0.7705938002196577,0.2875427168416242,1.2400586966855602
240,0.7450971114850305,0.2616794115964057,1.1291300674340148
241,0.6901858754827241,0.2094427568168288,0.90508521096866
242,0.6293978516808398,0.1448524274330841,0.6280550080030423
243,0.5646919693459035,0.0816390682999537,0.3569306790536251
244,0.5058934830803345,0.0220618353285581,0.1014018235784073
245,0.4549001056110801,-0.0298496108513235,-0.1212482017219836
246,0.4156909120107711,-0.0683005689132622,-0.2861657182875844
247,0.3901942232761438,-0.0958427982018975,-0.4042953120325646
248,0.3646975345415166,-0.1197671170390217,-0.506907560127566
249,0.3451082418762568,-0.1408824411435809,-0.5974719306483793
250,0.3352829872738374,-0.1521697382447266,-0.6458835463917505
251,0.3294061994742595,-0.1535184383251136,-0.6516681686498217
252,0.3352829872738374,-0.1561210277880877,-0.6628307667359887
253,0.3235294116746816,-0.1594599475935276,-0.6771515116557341
254,0.3392008458068894,-0.1495446049193866,-0.6346242568840278
255,0.3588207467419387,-0.1301039259428777,-0.5512424984375836
256,0.3646975345415166,-0.1193896525901245,-0.5052886017805814
257,0.374522789143936,-0.1186899357553191,-0.5022874915739289
258,0.3646975345415166,-0.1176424067610701,-0.4977946027365761
259,0.3803995769435139,-0.1130050831297375,-0.4779049579698994
260,0.3843174354765659,-0.1027709929803047,-0.4340105840238932
261,0.3941120818091958,-0.0912234741347041,-0.3844828680319213
262,0.4039067281418257,-0.092636440118148,-0.3905431290169889
263,0.3803995769435139,-0.1011905280252539,-0.4272319140363709
264,0.3941120818091958,-0.098974770215899,-0.4177284505689324
265,0.3941120818091958,-0.0963056674943597,-0.4062805747686551
266,0.3803995769435139,-0.1063160723942653,-0.4492155547826567
267,0.374522789143936,-0.1168899584017578,-0.4945673251597274
268,0.3705743223410945,-0.1197898172036195,-0.5070049219349121
269,0.374522789143936,-0.1143495306160297,-0.4836713407017682
270,0.3901942232761438,-0.0997856335284874,-0.4212062719426112
271,0.3999888696087737,-0.0911072563404896,-0.3839844058096871
272,0.3941120818091958,-0.0957950649264418,-0.4040905823290026
273,0.3901942232761438,-0.0993691688698378,-0.4194200403191703
274,0.3803995769435139,-0.1091685739709571,-0.4614500347472309
275,0.3549028882088867,-0.1400094858821878,-0.5937277947142392
276,0.3196115531416296,-0.1629842704264136,-0.6922674567054969
277,0.3451082418762568,-0.1521382142630082,-0.645748338921266
278,0.3588207467419387,-0.1286604801567179,-0.545051508502636
279,0.374522789143936,-0.1157902563655955,-0.4898506643037384
280,0.3705743223410945,-0.1172861195890328,-0.4962664744776672
281,0.374522789143936,-0.1256505123656714,-0.5321416503856491
282,0.3392008458068894,-0.1348373472561297,-0.5715443095545585
283,0.3490261004093087,-0.1537928256561074,-0.652845025599177
284,0.3392008458068894,-0.1541370324776878,-0.6543213408085025
285,0.3490261004093087,-0.1203799834095682,-0.5095361656269215
286,0.3549028882088867,-0.1557667201494003,-0.6613111287655011
287,0.2686181756723751,-0.2257968455002336,-0.9616728086756128
288,0.4490233178115022,0.0016346902019927,0.0137890769890593
289,1.1764594576280094,0.6145937215905002,2.6427920019672047
290,1.503906727835743,1.0972734502643553,4.713022398339197
291,1.503906727835743,0.9438609374105242,4.05503071477212
292,0.8156797816195448,0.3639211370843306,1.567648437501393
293,0.4549001056110801,-0.0328311421537201,-0.1340360947352547
294,0.4294034168764529,-0.0818434578857647,-0.3442516471965861
295,0.3999888696087737,-0.0717354598195744,-0.3008980866470482
296,0.3646975345415166,-0.1237162320860904,-0.5238454539804397
297,0.3490261004093087,-0.1493821526037349,-0.6339274931671277
298,0.3392008458068894,-0.1424088160981829,-0.6040186067144322
299,0.3490261004093087,-0.1357950831102126,-0.5756520724437628
300,0.3705743223410945,-0.126881390075987,-0.5374209283389894
301,0.3588207467419387,-0.1196336004594407,-0.5063349028041941
302,0.3803995769435139,-0.1107764028317109,-0.468346069492344
303,0.3941120818091958,-0.0941132119467919,-0.3968770555246634
304,0.4039067281418257,-0.0800065213207201,-0.3363729614195579
305,0.4156909120107711,-0.0726810332004545,-0.3049536842593128
306,0.419608770543823,-0.0667362170713217,-0.279456158011035
307,0.4294034168764529,-0.056028183366308,-0.2335290234234666
308,0.4490233178115022,-0.0366908015411822,-0.1505903101060138
309,0.4706021480130775,-0.0155495720540057,-0.0599148304846145
310,0.4901914406783372,0.0049363390586933,0.0279499654938817
311,0.5196059879460164,0.0362439558767457,0.1622294392823773
312,0.5646919693459035,0.0776804706873102,0.3399521141422371
313,0.6000139126829501,0.1175772184439682,0.5110706737493447
314,0.6450998940828371,0.1603435105477428,0.6944968103650407
315,0.6960932715520916,0.2125808102514088,0.918544432932582
316,0.7450971114850305,0.2614788726599474,1.1282699488558996
317,0.7764705880192357,0.2941318515344818,1.268319728000095
318,0.796090488954285,0.3122596425090227,1.3460704634570848
319,0.796090488954285,0.315406284043744,1.3595665200856992
320,0.7803884465522877,0.2966207588176122,1.2789947392035794
321,0.7411792529519786,0.2606053939352588,1.124523567769205
322,0.7000111300851435,0.2190075548803053,0.9461089675299152
323,0.6509766818824151,0.1687936522403759,0.7307397664009255
324,0.5843118702809528,0.1051839729525419,0.4579156063166554
325,0.5254827757455944,0.0440940910099562,0.1958989460028082
326,0.4803967943457073,0.0019188290693688,0.0150077586222177
327,0.4549001056110801,-0.0261185084978066,-0.105245372008277
328,0.4294034168764529,-0.0481182088476388,-0.1996028634662877
329,0.4156909120107711,-0.0640280676612006,-0.2678408095849612
330,0.3999888696087737,-0.0774143883193645,-0.325255211466418
331,0.3901942232761438,-0.0886613680518964,-0.3734939045924765
332,0.3901942232761438,-0.0865899251767074,-0.3646094129724399
333,0.4039067281418257,-0.0723497899331164,-0.3035329701917861
334,0.4156909120107711,-0.063763815543317,-0.2667074229224401
335,0.4098141242111931,-0.0629452064251027,-0.2631963795149809
336,0.419608770543823,-0.0581289492572108,-0.2425392824930931
337,0.4254855583434009,-0.0512895996441557,-0.2132050705524692
338,0.419608770543823,-0.051039550421322,-0.2121326006082232
339,0.4254855583434009,-0.0547688006043407,-0.2281274862972756
340,0.4156909120107711,-0.0541111988781641,-0.2253070092783259
341,0.4254855583434009,-0.0495923062480816,-0.2059253192569921
342,0.4254855583434009,-0.0496051598273079,-0.2059804487120648
343,0.4156909120107711,-0.0548935996097581,-0.2286627536373023
344,0.4098141242111931,-0.0626318550696714,-0.2618524044892624
345,0.4039067281418257,-0.0718299423824346,-0.3013033256946828
346,0.3941120818091958,-0.0729323228764186,-0.3060314745508269
347,0.4039067281418257,-0.0685177143019584,-0.2870970625256074
348,0.3999888696087737,-0.0755556594728165,-0.3172830578246868
349,0.3803995769435139,-0.0821178459175976,-0.345428507151865
350,0.4039067281418257,-0.0714537343146484,-0.2996897560106374
351,0.4098141242111931,-0.0608609034557427,-0.2542567304970436
352,0.4039067281418257,-0.059054523369401,-0.2465091025359105
353,0.4156909120107711,-0.0595218966545414,-0.2485136830556027
354,0.3941120818091958,-0.0714541733068697,-0.2996916388637724
355,0.374522789143936,-0.0924170596276817,-0.3896021983485679
356,0.3646975345415166,-0.1047442627549093,-0.4424740077497089
357,0.3588207467419387,-0.1078951571480462,-0.455988305038207
358,0.3588207467419387,-0.1064362841438517,-0.4497311472204799
359,0.3646975345415166,-0.1037278533163123,-0.4381145917851642
360,0.3549028882088867,-0.108256274826743,-0.4575371515107104
361,0.3588207467419387,-0.111192860393251,-0.4701322706760317
362,0.3490261004093087,-0.1099468615960641,-0.4647881378472792
363,0.3392008458068894,-0.1279248235502044,-0.5418962513463421
364,0.3352829872738374,-0.1375577964937993,-0.5832124123752097
365,0.3352829872738374,-0.1093055241933078,-0.4620374190856602
366,0.3451082418762568,-0.134070261314614,-0.5682542508708873
367,0.274494963471953,-0.1955906461822975,-0.832117353428566
368,0.4294034168764529,0.0025967510019328,0.0179153897237292
369,1.0921642826278133,0.5768078874744433,2.480727225486427
370,1.503906727835743,1.0913526430285323,4.687627847081913
371,1.503906727835743,1.0164122949610186,4.366206048593885
372,0.8960877063564784,0.4268476797848847,1.8375426006459816
373,0.3588207467419387,-0.0694593657899454,-0.2911358390007985
374,0.3392008458068894,-0.1532837836130634,-0.6506617263058001
375,0.3549028882088867,-0.0926398707987573,-0.3905578433272358
376,0.3352829872738374,-0.1206645790485323,-0.5107568063695463
377,0.3098169068089997,-0.1551682053566499,-0.6587440776899682
378,0.3137347653420516,-0.1467530026974098,-0.6226509764017621
379,0.3098169068089997,-0.1440128476465093,-0.6108983546524872
380,0.3196115531416296,-0.1403511738325202,-0.595193306395858
381,0.3352829872738374,-0.1272019221104799,-0.5387957015507032
382,0.3294061994742595,-0.121912389014006,-0.5161087073630207
383,0.3451082418762568,-0.1161323697949772,-0.4913180008800205
384,0.3549028882088867,-0.1033659768045444,-0.4365624906508297
385,0.3588207467419387,-0.0941763572289109,-0.3971478878688959
386,0.3705743223410945,-0.0894228286138016,-0.3767598358244049
387,0.374522789143936,-0.0813742725220988,-0.3422392946081261
388,0.3901942232761438,-0.0637237579586892,-0.2665356145278146
389,0.419608770543823,-0.0385543100492152,-0.1585829638845911
390,0.4451054592784502,-0.0102401658578748,-0.0371425998709211
391,0.4803967943457073,0.0272055322649227,0.1234633213269127
392,0.5294006342786464,0.0722384577093598,0.3166111283598897
393,0.5705993654152709,0.1156956710786871,0.5030006506752027
394,0.6196032053482099,0.1673971618891466,0.7247501699840672
395,0.6862680169496722,0.2293799354606188,0.9905964740160494
396,0.7254772105499813,0.2727197811302784,1.176482602124044
397,0.7411792529519786,0.2865430277460638,1.2357709948625797
398,0.7450971114850305,0.293239267554209,1.2644914037977253
399,0.7548917578176605,0.297603367585224,1.2832091828970005
400,0.7254772105499813,0.2776840722526491,1.1977746220027483
401,0.6862680169496722,0.2272139448218175,0.9813064637000506
402,0.615685346815158,0.1674201615290204,0.7248488162514445
403,0.5646919693459035,0.1098515342635574,0.4779349415589759
404,0.4941092992113892,0.0414709527306242,0.1846482133178451
405,0.419608770543823,-0.0325543383035295,-0.1328488732497538
406,0.3705743223410945,-0.0811954295018776,-0.3414722305806846
407,0.3490261004093087,-0.1032691406542752,-0.4361471569837089
408,0.3294061994742595,-0.125003804742871,-0.5293678985606756
409,0.2999916522065803,-0.1464594465358955,-0.6213919036615853
410,0.3039095107396323,-0.1551259022443453,-0.6585626381478629
411,0.2843202180743724,-0.1601887267355236,-0.6802772711239164
412,0.2901970058739504,-0.1672924026422007,-0.7107451878694221
413,0.2843202180743724,-0.1637851913194848,-0.6957026346908681
414,0.2999916522065803,-0.1512378345656958,-0.6418865786133005
415,0.3098169068089997,-0.1455181059454784,-0.6173544606370471
416,0.3039095107396323,-0.1415553918882175,-0.6003582401493719
417,0.3294061994742595,-0.1267737443850149,-0.5369592321701836
418,0.3352829872738374,-0.113740291443075,-0.4810582923809351
419,0.3352829872738374,-0.1153815210510806,-0.4880975841101611
420,0.3352829872738374,-0.1181056437717408,-0.4997814426290444
421,0.3392008458068894,-0.1091593417919108,-0.4614104376053768
422,0.3549028882088867,-0.0983520295711779,-0.4150574939590495
423,0.3549028882088867,-0.0955858285312231,-0.4031931600432166
424,0.3549028882088867,-0.0956317783944327,-0.4033902406286951
425,0.3549028882088867,-0.0966481749338596,-0.4077496012682439
426,0.3490261004093087,-0.1032543656491836,-0.4360837864652676
427,0.3392008458068894,-0.1095381876654036,-0.4630353209312205
428,0.3451082418762568,-0.1082546578676909,-0.4575302163162523
429,0.3490261004093087,-0.1021464708716458,-0.4313319866522899
430,0.3549028882088867,-0.094602079098576,-0.3989738239971904
431,0.3646975345415166,-0.0883109418544589,-0.3719909142605367
432,0.3705743223410945,-0.0823438625283779,-0.3463979003745883
433,0.3705743223410945,-0.0756517381910877,-0.3176951428392284
434,0.374522789143936,-0.0838866262154194,-0.3530148682926471
435,0.3352829872738374,-0.1124286491191986,-0.4754326121487916
436,0.3196115531416296,-0.1311027747759827,-0.5555265963452292
437,0.3352829872738374,-0.1218744687402952,-0.515946065970372
438,0.3392008458068894,-0.1069733805961253,-0.4520347728654502
439,0.3451082418762568,-0.1108961817254,-0.4688598053959426
440,0.3235294116746816,-0.1269898927075837,-0.5378862999563867
441,0.3235294116746816,-0.1323403008833953,-0.5608343895084275
442,0.3039095107396323,-0.1403014780827237,-0.5949801595705669
443,0.2999916522065803,-0.1627547415707229,-0.6912829993403597
444,0.3098169068089997,-0.1445762712847878,-0.6133148985276637
445,0.3098169068089997,-0.1194819102634807,-0.5056842981985878
446,0.2901970058739504,-0.1987050423213557,-0.8454751084168192
447,0.2549056708066933,-0.1874624377458831,-0.7972551804938446
448,0.6509766818824151,0.2489184251172021,1.074397745922353
449,1.503906727835743,0.9248892628611332,3.973660532870893
450,1.503906727835743,1.2229353444237607,5.251990698643068
451,1.462738604968908,0.8379030114787037,3.6005734298074845
452,0.5058934830803345,0.1674466109526984,0.724962258763346
453,0.3294061994742595,-0.1641241740705639,-0.6971565436773878
454,0.3588207467419387,-0.1132871541551681,-0.4791147705559523
455,0.3646975345415166,-0.0615753071759685,-0.2573208332737566
456,0.3705743223410945,-0.0958144110167521,-0.4041735583933204
457,0.3588207467419387,-0.1041548766329052,-0.4399461098652771
458,0.3352829872738374,-0.1101387399497106,-0.4656111108799694
459,0.3352829872738374,-0.1245682212074544,-0.5274996653998254
460,0.3490261004093087,-0.1091349241621742,-0.4613057095294186
461,0.3705743223410945,-0.0856295142193123,-0.36049017647069
462,0.3803995769435139,-0.0728175486276259,-0.3055392037458685
463,0.3999888696087737,-0.0630227801581176,-0.2635290959944749
464,0.3941120818091958,-0.0597873207531781,-0.2496520963849485
465,0.4039067281418257,-0.0542311109621064,-0.2258213164396225
466,0.419608770543823,-0.0396856929641265,-0.1634355051479677
467,0.4254855583434009,-0.0326506410904419,-0.1332619193026078
468,0.4294034168764529,-0.0286286349027097,-0.1160113927741452
469,0.4549001056110801,-0.0045151378794613,-0.0125877527602811
470,0.4941092992113892,0.034053249758131,0.1528334234009258
471,0.5294006342786464,0.0708597611106565,0.31069784997579
472,0.5745172239483228,0.1141066125587734,0.4961851225846039
473,0.6353052477502072,0.173888570139593,0.7525920491370542
474,0.6960932715520916,0.2387276907293806,1.0306893263684904
475,0.7607991538870279,0.2942263016680557,1.268724827957376
476,0.7901830928849176,0.3360389224630699,1.4480606346622469
477,0.8255050362219641,0.3573370904906381,1.539409229223803
478,0.8117619230864929,0.3536566916534713,1.5236238686817132
479,0.796090488954285,0.3330927133422856,1.4354242397328931
480,0.7607991538870279,0.2976260392596538,1.28330642250901
481,0.7058879178847215,0.2420777236434003,1.0450577358032616
482,0.6353052477502072,0.1756631015376006,0.7602030769495649
483,0.5803940117479008,0.110827975195181,0.4821229311860995
484,0.5058934830803345,0.0484520097448163,0.2145902133046559
485,0.4607768934106581,-0.0094353108242348,-0.0336905482177629
486,0.4039067281418257,-0.0561022828646682,-0.2338468387878753
487,0.3803995769435139,-0.0882270705183285,-0.3716311871389554
488,0.3549028882088867,-0.1079978984660974,-0.4564289661784154
489,0.3451082418762568,-0.1217031502318213,-0.5152112748394533
490,0.3352829872738374,-0.1316135364791059,-0.5577172713213951
491,0.3294061994742595,-0.1347637900543032,-0.5712288201191275
492,0.3352829872738374,-0.1338904318814898,-0.5674829560836815
493,0.3352829872738374,-0.1310150140514809,-0.5551501874996154
494,0.3451082418762568,-0.1217946846648237,-0.5156038692540497
495,0.3549028882088867,-0.1130405920109758,-0.4780572568151039
496,0.3588207467419387,-0.1123149854965311,-0.4749451048584927
497,0.3549028882088867,-0.1076636739701707,-0.4549954655162256
498,0.3803995769435139,-0.0949392519874877,-0.4004199704209803
499,0.3803995769435139,-0.0856332889300003,-0.3605063663380898
500,0.3901942232761438,-0.0782049672887549,-0.3286460325760204
501,0.4039067281418257,-0.0704499015760178,-0.2953842819562451
502,0.3941120818091958,-0.0711595722619382,-0.2984280845817316
503,0.3999888696087737,-0.0752768107300534,-0.3160870657227513
504,0.3941120818091958,-0.072792685763845,-0.305432566045376
505,0.4039067281418257,-0.0713336600963444,-0.2991747534493397
506,0.3901942232761438,-0.0787166696476589,-0.3308407420580382
507,0.3803995769435139,-0.0925896060694317,-0.3903422561286577
508,0.3646975345415166,-0.1085973865309754,-0.4590001916524632
509,0.3588207467419387,-0.112568530619046,-0.4760325688398873
510,0.3803995769435139,-0.0936632345023538,-0.3949470863798705
511,0.3999888696087737,-0.072006947022831,-0.3020625048461551
512,0.4098141242111931,-0.0675409173620592,-0.2829075459664215
513,0.3999888696087737,-0.0683064529774001,-0.2861909552463976
514,0.4098141242111931,-0.0700088052710374,-0.293492404332118
515,0.3843174354765659,-0.0885187182538726,-0.3728820745727726
516,0.3549028882088867,-0.1174289930885252,-0.4968792639608672
517,0.3490261004093087,-0.1321528795275134,-0.5600305326964955
518,0.3451082418762568,-0.1240790224605915,-0.5254014747042991
519,0.374522789143936,-0.1074024941768234,-0.4538752561621032
520,0.3646975345415166,-0.1053553749948121,-0.4450950897208073
521,0.3705743223410945,-0.1133236109549666,-0.479271135057326
522,0.3588207467419387,-0.1126033788979271,-0.4761820343382607
523,0.3451082418762568,-0.1287157104666238,-0.5452883932516234
524,0.3392008458068894,-0.1532011167280304,-0.6503071651174964
525,0.3392008458068894,-0.1237206994572734,-0.5238646146931556
526,0.3392008458068894,-0.130296975096137,-0.5520704930711459
527,0.274494963471953,-0.2477681445983928,-1.0559084861625456
528,0.2647003171393232,-0.1518388663612506,-0.6444644252027194
529,0.9411736877563656,0.4179548355421158,1.799400877743793
530,1.503906727835743,1.0272031579731071,4.412488441003629
531,1.503906727835743,1.064362047788686,4.57186423124658
532,1.1058767874934952,0.562037161382041,2.4173750598237205
533,0.4803967943457073,0.0638256569559803,0.2805283289307145
534,0.419608770543823,-0.0998068502221053,-0.4212972710905533
535,0.3843174354765659,-0.086905754359023,-0.36596401548514
536,0.3549028882088867,-0.1163358253325546,-0.4921906288633008
537,0.3294061994742595,-0.1612580701629347,-0.6848637228352186
538,0.3196115531416296,-0.1597982440984084,-0.6786024773080825
539,0.3294061994742595,-0.1456952566929662,-0.6181142664469926
540,0.3490261004093087,-0.1401866833617694,-0.5944878009597846
541,0.3451082418762568,-0.131190761708293,-0.5559039754041194
542,0.3646975345415166,-0.1177410254471915,-0.498217581762896
543,0.374522789143936,-0.1096799296621529,-0.4636432573592098
544,0.3705743223410945,-0.1084713106371501,-0.4584594476929768
545,0.3803995769435139,-0.1034607151731987,-0.4369688268585459
546,0.3901942232761438,-0.0917009678624715,-0.3865308554873236
547,0.4039067281418257,-0.0786929161545815,-0.3307388624876574
548,0.419608770543823,-0.0627179518567064,-0.2622216766483388
549,0.4392286714788723,-0.0430090148129496,-0.1776893498811273
550,0.46469475194371,-0.0205664457661049,-0.081432378946993
551,0.4901914406783372,0.0112702991744151,0.0551165440386281
552,0.5392258888810657,0.0527074827457582,0.2328420872370766
553,0.5803940117479008,0.0973035009057016,0.4241159835026794
554,0.6254799931477878,0.1465677694129836,0.6354121703117175
555,0.6862680169496722,0.195519478556885,0.8453677789769023
556,0.7058879178847215,0.2301856860969419,0.994052366940733
557,0.7411792529519786,0.2517890855939718,1.0867101100504264
558,0.7509738992846084,0.2707142769496558,1.1678809238928427
559,0.7666759416866058,0.2818174039721873,1.2155026276672634
560,0.7509738992846084,0.267802977850097,1.1553942592769573
561,0.7098057764177734,0.2251802969294398,0.9725840760955716
562,0.654894540415467,0.1728013009071944,0.7479287130153243
563,0.60980855901558,0.124446340262181,0.5405325797289409
564,0.5548973230132735,0.0720253654028051,0.315697167934258
565,0.4941092992113892,0.0103888544246168,0.0513359963890127
566,0.4392286714788723,-0.0452874828337761,-0.1874617796594323
567,0.4039067281418257,-0.0784667972024948,-0.329769030319458
568,0.3941120818091958,-0.0915723213061977,-0.3859790858658433
569,0.3803995769435139,-0.1004969581179595,-0.4242571682188188
570,0.374522789143936,-0.112866975860379,-0.4773126110160063
571,0.3588207467419387,-0.1202996464253447,-0.5091915974654425
572,0.3705743223410945,-0.1175730427322092,-0.4974970979680266
573,0.3646975345415166,-0.1144316714758438,-0.4840236457493376
574,0.3705743223410945,-0.1167772130975904,-0.4940837565698949
575,0.3646975345415166,-0.115231553671123,-0.4874543687232098
576,0.3803995769435139,-0.1053199133636257,-0.4449429935327434
577,0.3843174354765659,-0.0971674999744643,-0.4099770047011803
578,0.3901942232761438,-0.0940186779782728,-0.3964715959963431
579,0.3941120818091958,-0.0879807995699806,-0.3705749223473638
580,0.3999888696087737,-0.0824356299846693,-0.3467914942342976
581,0.3999888696087737,-0.0848582674698106,-0.3571822719346775
582,0.3941120818091958,-0.084910373557985,-0.3574057567863639
583,0.4098141242111931,-0.075573076100831,-0.3173577583571019
584,0.4098141242111931,-0.0710943489997695,-0.2981483397077068
585,0.4039067281418257,-0.0776615709005946,-0.3263153862836249
586,0.3999888696087737,-0.0832803105239258,-0.3504143588870087
587,0.3941120818091958,-0.0857613753745533,-0.361055733620626
588,0.3901942232761438,-0.0930975470164234,-0.3925208327821942
589,0.3803995769435139,-0.0994814162698257,-0.4199014733803994
590,0.3901942232761438,-0.0914973279996601,-0.3856574369266074
591,0.4098141242111931,-0.0710127862210015,-0.297798514070152
592,0.4294034168764529,-0.0512018218685488,-0.2128285885740637
593,0.4392286714788723,-0.0410025796726619,-0.1690836787310567
594,0.4352802046760309,-0.0448433401473532,-0.1855568359977517
595,0.419608770543823,-0.0612410270265012,-0.2558870939115665
596,0.3999888696087737,-0.0775427161373317,-0.3258056140080489
597,0.4039067281418257,-0.0784105251643542,-0.3295276775612957
598,0.4156909120107711,-0.0605442714709844,-0.2528986847363252
599,0.4392286714788723,-0.0422657802586253,-0.174501590639148
600,0.4294034168764529,-0.0456804987844213,-0.1891474389464302
601,0.4294034168764529,-0.054475364787287,-0.2268689297187388
602,0.4254855583434009,-0.0470102552406463,-0.1948508113317019
603,0.419608770543823,-0.0566643331324911,-0.2362574922286835
604,0.4156909120107711,-0.0742751760030084,-0.3117910190176463
605,0.4254855583434009,-0.0373281302620687,-0.1533238354895744
606,0.4294034168764529,-0.0408504974052756,-0.1684313925172617
607,0.3646975345415166,-0.1530769224280326,-0.6497744913803623
608,0.3549028882088867,-0.0595435909369156,-0.248606730598581
609,0.99216706522562,0.4702666259031209,2.0237679933704125
610,1.503906727835743,1.031019246312209,4.428855778609778
611,1.503906727835743,1.0729142914550296,4.608545106252225
612,1.1470449103603302,0.601856571671635,2.5881619163043386
613,0.5098113416133866,0.1013035953768712,0.4412725299052534
614,0.4352802046760309,-0.0744381599444456,-0.3124900628963085
615,0.4254855583434009,-0.0458826677378907,-0.1900145487250509
616,0.4039067281418257,-0.0550685736787462,-0.229413223596319
617,0.3843174354765659,-0.0990126898121454,-0.4178910890559124
618,0.3646975345415166,-0.1088782630993539,-0.4602048811700516
619,0.3588207467419387,-0.1045054801802636,-0.4414498608572887
620,0.3803995769435139,-0.0998255307949428,-0.4213773927269355
621,0.374522789143936,-0.0922693725795721,-0.3889687633854156
622,0.3843174354765659,-0.0873676648723321,-0.3679451659835949
623,0.3901942232761438,-0.080298252242831,-0.337624205643497
624,0.3999888696087737,-0.0707673222011537,-0.2967457102233845
625,0.4039067281418257,-0.0637291381881369,-0.2665586905218545
626,0.419608770543823,-0.0523840981529316,-0.2178994132957973
627,0.4294034168764529,-0.0359999247441968,-0.147627115133652
628,0.4451054592784502,-0.0261837938141249,-0.1055253830347402
629,0.4490233178115022,-0.0174853051822768,-0.0682172582091459
630,0.4745200065461294,0.0076742730873722,0.0396930612004392
631,0.5098113416133866,0.0415038798215727,0.1847894387733515
632,0.5353080303480138,0.0689123057734382,0.3023451452832537
633,0.5705993654152709,0.1055475903291648,0.459475174081811
634,0.6293978516808398,0.1626597837090771,0.7044313877256223
635,0.6803912291500942,0.2150484633691893,0.9291282842705428
636,0.7098057764177734,0.2456450419453749,1.0603580899378189
637,0.7313846066193487,0.2665686694002543,1.1501002667606697
638,0.7450971114850305,0.2813970951673785,1.2136999083652351
639,0.7450971114850305,0.2806710035193201,1.2105856756534283
640,0.7254772105499813,0.2641788257360097,1.1398501429158392
641,0.6960932715520916,0.2316884044094891,1.00049757883386
642,0.6411820355497851,0.1798209171752274,0.7780360950031199
643,0.5803940117479008,0.1185765962329276,0.5153570403673237
644,0.5196059879460164,0.0587810496215556,0.2588918299830992
645,0.4607768934106581,-0.0018519829720121,-0.0011653873446124
646,0.3999888696087737,-0.0576524676683744,-0.2404956361372975
647,0.3705743223410945,-0.0923382854988988,-0.3892643333292473
648,0.3490261004093087,-0.1082390359641655,-0.4574632134205302
649,0.3352829872738374,-0.1249553376141675,-0.5291600213346264
650,0.3137347653420516,-0.1452548111773965,-0.6162251800816229
651,0.3039095107396323,-0.1531566329545884,-0.6501163726427885
652,0.3098169068089997,-0.1488161496036064,-0.6314998863179171
653,0.3098169068089997,-0.1479220152605986,-0.6276649125550441
654,0.3098169068089997,-0.1463871338717589,-0.6210817520922424
655,0.3235294116746816,-0.1329449372145924,-0.5634276960784677
656,0.3352829872738374,-0.1220917144341926,-0.516877840420944
657,0.3294061994742595,-0.1245610712164924,-0.5274689988361726
658,0.3352829872738374,-0.1223545907994559,-0.5180053264319083
659,0.3392008458068894,-0.1117817620544094,-0.4726580906907932
660,0.3490261004093087,-0.1110841920230922,-0.4696661882000904
661,0.3352829872738374,-0.1140368759676489,-0.4823303538771852
662,0.3451082418762568,-0.109281709963981,-0.4619352790153614
663,0.3451082418762568,-0.1119325130100332,-0.4733046668614394
664,0.3294061994742595,-0.1194653263736475,-0.5056131693096305
665,0.3352829872738374,-0.1168911779020225,-0.4945725556394148
666,0.3352829872738374,-0.1223151836294063,-0.5178363076883704
667,0.3098169068089997,-0.1359312562579368,-0.576236123881686
668,0.3294061994742595,-0.1239944461810074,-0.5250387240553582
669,0.3549028882088867,-0.0990855990845341,-0.4182037994991108
670,0.3490261004093087,-0.0965896813297733,-0.4074987201353123
671,0.3549028882088867,-0.1008500846737296,-0.4257717404829782
672,0.3490261004093087,-0.09513653843094,-0.4012661389417699
673,0.3549028882088867,-0.1015644657946586,-0.4288357463305094
674,0.3196115531416296,-0.1240815358700669,-0.5254122548062703
675,0.3098169068089997,-0.1407426532104574,-0.5968723752682655
676,0.3098169068089997,-0.1428125691712218,-0.6057503178984304
677,0.3098169068089997,-0.1321028072847536,-0.5598157710795933
678,0.3294061994742595,-0.123085096152663,-0.5211384896809158
679,0.3196115531416296,-0.1285377806750191,-0.5445252460939578
680,0.3196115531416296,-0.1255504038519697,-0.5317122814362418
681,0.3294061994742595,-0.1186945914356938,-0.502307459951416
682,0.2999916522065803,-0.1447855733050589,-0.6142126022816162
683,0.3137347653420516,-0.1471223347361831,-0.6242350545546261
684,0.3137347653420516,-0.1028879879661097,-0.4345123796482963
685,0.3235294116746816,-0.1496083632651765,-0.6348977186799879
686,0.2588235293397452,-0.1989098693191237,-0.8463536186412737
687,0.4941092992113892,0.12234050853778,0.531500593120601
688,1.3568645997671365,0.7846613205499138,3.372217937817265
689,1.503906727835743,1.2005814177260306,5.156113917873635
690,1.503906727835743,0.945936074576826,4.06393105133716
691,0.6803912291500942,0.2884763093417637,1.2440629078773662
692,0.2999916522065803,-0.139032099584475,-0.5895357503785845
693,0.3294061994742595,-0.1479692730005844,-0.6278676026701879
694,0.3352829872738374,-0.0848448998975688,-0.3571249379454157
695,0.3137347653420516,-0.1331433689749378,-0.564278776903845
696,0.2843202180743724,-0.1693711057736199,-0.7196608189847398
697,0.2843202180743724,-0.1517455848913745,-0.6440643376852958
698,0.3098169068089997,-0.1345659135669872,-0.5703801208793761
699,0.3196115531416296,-0.1279633511313693,-0.5420614975021014
700,0.3137347653420516,-0.126528572860743,-0.5359076828472671
701,0.3196115531416296,-0.1243200423727937,-0.5264352176164839
702,0.3294061994742595,-0.115099456379155,-0.4868877987745154
703,0.3392008458068894,-0.1035220520098554,-0.4372319027163468
704,0.3549028882088867,-0.0878290623157567,-0.3699241159072023
705,0.374522789143936,-0.0685771241368159,-0.2873518734046624
706,0.3901942232761438,-0.0547666988059064,-0.2281184716095909
707,0.4039067281418257,-0.0360659899662403,-0.1479104712033036
708,0.4451054592784502,-5.286368447764318e-05,0.0065510987941075
709,0.4803967943457073,0.0376468819478122,0.1682466387288183
710,0.5098113416133866,0.0678092027334177,0.2976138974016509
711,0.5509794644802216,0.1074770645746289,0.4677507572370251
712,0.605890700482528,0.1626240534965478,0.7042781395826969
713,0.6607713282150449,0.218695252669301,0.9447694923216824
714,0.7098057764177734,0.2660838888183033,1.1480210257304253
715,0.7450971114850305,0.3025456222131271,1.3044066874729767
716,0.7666759416866058,0.3237127911742869,1.3951934224140343
717,0.7705938002196577,0.3269073677496786,1.4088950741243396
718,0.7548917578176605,0.3129739384340032,1.3491341038961853
719,0.7254772105499813,0.2808931155714259,1.2115383220861535
720,0.6705965828174644,0.2283210120060288,0.9860547139360344
721,0.6000139126829501,0.156738103510075,0.6790330922984451
722,0.5196059879460164,0.0749161976213258,0.3280960493748268
723,0.4392286714788723,-0.0023605270679814,-0.0033465509254069
724,0.3803995769435139,-0.0649674831795423,-0.271869995907407
725,0.3294061994742595,-0.1135542350323434,-0.4802602898669396
726,0.2941148644070023,-0.1495739710398555,-0.634750209211434
727,0.274494963471953,-0.1704438999861567,-0.7242620712352694
728,0.2647003171393232,-0.1783896638850756,-0.7583417331078153
729,0.2647003171393232,-0.1803885649461866,-0.7669150903263207
730,0.2686181756723751,-0.1758868292006319,-0.7476069867884177
731,0.2843202180743724,-0.1599017570589702,-0.6790464480502603
732,0.3039095107396323,-0.1410655657113345,-0.5982573583843391
733,0.3137347653420516,-0.1319332833353984,-0.5590886768760883
734,0.3196115531416296,-0.125506448205388,-0.5315237541162825
735,0.3294061994742595,-0.1138506361786165,-0.4815315648471837
736,0.3451082418762568,-0.1058027914626564,-0.447014074746579
737,0.3392008458068894,-0.100305396554192,-0.4234355539091033
738,0.3646975345415166,-0.086088995068256,-0.362460906052907
739,0.374522789143936,-0.0711273540225505,-0.2982898994155941
740,0.374522789143936,-0.0687696098655726,-0.2881774514906425
741,0.3803995769435139,-0.0728441794916101,-0.3056534244616486
742,0.3646975345415166,-0.0751093946180651,-0.315369012108126
743,0.3705743223410945,-0.0830312723759964,-0.3493462254787213
744,0.3451082418762568,-0.0992718136059716,-0.4190024801555058
745,0.3392008458068894,-0.109778688685769,-0.4640668382979988
746,0.3352829872738374,-0.1123186560794359,-0.4749608481181543
747,0.3352829872738374,-0.1155513474735591,-0.4888259756315702
748,0.3392008458068894,-0.1066333792197255,-0.4505764949589695
749,0.3705743223410945,-0.0808700590672421,-0.3400767052999486
750,0.3803995769435139,-0.0678172211931219,-0.2840926228522307
751,0.3803995769435139,-0.0727467639431125,-0.3052356057350718
752,0.3705743223410945,-0.0725016838676714,-0.304184448639419
753,0.3803995769435139,-0.0790984480440826,-0.3324782030782597
754,0.3392008458068894,-0.1064043256018979,-0.4495940759058046
755,0.3235294116746816,-0.1261297931379845,-0.5341973025381962
756,0.3352829872738374,-0.1226542849214489,-0.5192907251012674
757,0.3392008458068894,-0.1081577957782429,-0.457114771395078
758,0.3549028882088867,-0.0960398024813714,-0.4051402703420895
759,0.3588207467419387,-0.0990296882379927,-0.4179639959044686
760,0.3490261004093087,-0.1037740537874001,-0.4383127472366795
761,0.3352829872738374,-0.1083227767881202,-0.4578223807707825
762,0.3294061994742595,-0.1369084646023815,-0.5804274049694914
763,0.3294061994742595,-0.1298973786912804,-0.5503566099837248
764,0.3392008458068894,-0.0813638048176414,-0.3421943982541658
765,0.3549028882088867,-0.1438916335004533,-0.6103784629008182
766,0.2686181756723751,-0.180905621907338,-0.7691327658864117
767,0.5960654458801087,0.2107135194674279,0.910535556838938
768,1.503906727835743,0.9014929059476772,3.873312732105196
769,1.503906727835743,1.2295923873974837,5.280542990971608
770,1.503906727835743,0.881208663914065,3.786312901926447
771,0.605890700482528,0.2538552733801912,1.0955720624083518
772,0.4098141242111931,-0.0819389014310034,-0.3446610079315677
773,0.3941120818091958,-0.0780293818719327,-0.3278929405245608
774,0.374522789143936,-0.0628473173397528,-0.2627765297721272
775,0.3490261004093087,-0.115498032488329,-0.4885973057777342
776,0.3490261004093087,-0.1211936297136933,-0.5130259233495494
777,0.3451082418762568,-0.1019302164839374,-0.4304044639489587
778,0.3588207467419387,-0.1079417454293636,-0.456188123821488
779,0.3549028882088867,-0.1088155035743425,-0.459935703351672
780,0.3646975345415166,-0.0896828224002245,-0.3778749583529589
781,0.3901942232761438,-0.077577611884575,-0.3259552830999034
782,0.3803995769435139,-0.0813235144963204,-0.342021591643647
783,0.3843174354765659,-0.0756503425865678,-0.3176891570421734
784,0.4039067281418257,-0.060397532323979,-0.2522693153544725
785,0.4098141242111931,-0.0592344043891249,-0.2472806185798637
786,0.4039067281418257,-0.0504499650154479,-0.2096038479882377
787,0.4607768934106581,-0.0121594172976366,-0.0453743370515814
788,0.4843146528787593,0.0214130213269131,0.0986190374202075
789,0.4999860870109672,0.0368046980191254,0.1646344821269788
790,0.5294006342786464,0.0616880473532986,0.271360045880571
791,0.5705993654152709,0.1013372943314035,0.4414170659109199
792,0.60980855901558,0.149677481004089,0.648749833108422
793,0.6803912291500942,0.205755576961381,0.8892707663997721
794,0.7156825642173513,0.2528307619386299,1.091177896667067
795,0.7509738992846084,0.2805987618575736,1.210275828615843
796,0.7666759416866058,0.298588117651801,1.2874328106972772
797,0.7764705880192357,0.3072719922249793,1.3246782553093153
798,0.7666759416866058,0.2969696447290645,1.280491123194552
799,0.7353024651524006,0.2659938488665573,1.1476348411986976
800,0.6901858754827241,0.218569718803952,0.944231073141466
801,0.6293978516808398,0.1600807242037545,0.6933697104585028
802,0.5705993654152709,0.0978532074318111,0.4264736941995064
803,0.5098113416133866,0.0396025922033033,0.1766347490572507
804,0.46469475194371,-0.0092727731111485,-0.032993418228251
805,0.419608770543823,-0.0501144040424531,-0.2081646151287211
806,0.3901942232761438,-0.0862809212657602,-0.3632840842895919
807,0.3588207467419387,-0.1113057875956147,-0.4706166194336497
808,0.3549028882088867,-0.120383888260688,-0.5095529136712277
809,0.3490261004093087,-0.1255535719481351,-0.5317258695125389
810,0.3392008458068894,-0.1336363922610962,-0.5663933711834277
811,0.3451082418762568,-0.1319046366959879,-0.5589658104283416
812,0.3549028882088867,-0.1184200769167539,-0.5011300574884697
813,0.3646975345415166,-0.1123054204537479,-0.4749040800523199
814,0.3588207467419387,-0.1174559836564836,-0.4969950274596915
815,0.3588207467419387,-0.1158292683776459,-0.4900179882006674
816,0.374522789143936,-0.1044858782423705,-0.4413657874536562
817,0.3803995769435139,-0.0956826431497216,-0.4036084013598126
818,0.3901942232761438,-0.0871443693026785,-0.3669874434023253
819,0.4039067281418257,-0.0743573650115338,-0.3121435305767383
820,0.4098141242111931,-0.0690372672604144,-0.2893254435062543
821,0.3999888696087737,-0.0768634803220749,-0.3228923476172839
822,0.3941120818091958,-0.0869834862151215,-0.3662974101601219
823,0.3843174354765659,-0.0930964668563756,-0.3925161999376162
824,0.3803995769435139,-0.1000723949907503,-0.4224362019778248
825,0.3705743223410945,-0.1095861505715811,-0.4632410355290549
826,0.3646975345415166,-0.1143172344597885,-0.4835328213474953
827,0.374522789143936,-0.1072105870770488,-0.4530521598362547
828,0.3901942232761438,-0.0905027063554437,-0.3813914695813378
829,0.4039067281418257,-0.0751674922821828,-0.3156181950405544
830,0.4156909120107711,-0.0697721323932897,-0.2924773060041723
831,0.4039067281418257,-0.0731429010781043,-0.3069346518919198
832,0.3999888696087737,-0.0843713453275113,-0.3550938456764956
833,0.3803995769435139,-0.103450825151932,-0.4369264082081846
834,0.3549028882088867,-0.1221957809088193,-0.5173241852044869
835,0.3549028882088867,-0.1337048595500377,-0.5666870298028052
836,0.3490261004093087,-0.1306128727129279,-0.5534253891017266
837,0.374522789143936,-0.1089760383853108,-0.4606242428232912
838,0.3843174354765659,-0.0982319323072742,-0.4145423925543611
839,0.3705743223410945,-0.1169455456700388,-0.4948057409157874
840,0.3490261004093087,-0.1312991226168502,-0.5563687391663971
841,0.3392008458068894,-0.1388839850255621,-0.5889004818065042
842,0.3549028882088867,-0.1479679187838271,-0.6278617943867077
843,0.3490261004093087,-0.1164368775406691,-0.4926240453513599
844,0.3588207467419387,-0.121696774510175,-0.5151839291442295
845,0.2784434302747945,-0.2434442729608532,-1.0373632480630737
846,0.2647003171393232,-0.1675807405592817,-0.7119818793750045
847,0.9215537868213162,0.3994473190015278,1.7200214859285383
848,1.503906727835743,1.0237487340421765,4.397672294812001
849,1.503906727835743,1.04299139262186,4.480204736785726
850,1.041170905158559,0.5129170937789032,2.206697355783296
851,0.4706021480130775,0.0324384981562441,0.1459076967746986
852,0.4156909120107711,-0.1051612334839139,-0.4442624099267682
853,0.3803995769435139,-0.0913640814679419,-0.3850859378480527
854,0.374522789143936,-0.1095679879828889,-0.4631631355449584
855,0.3490261004093087,-0.1399957075536509,-0.5936686989767267
856,0.3352829872738374,-0.1548213926826734,-0.6572565858877212
857,0.3196115531416296,-0.157017411406134,-0.6666753877189082
858,0.3490261004093087,-0.1429662244166681,-0.6064093506706557
859,0.3549028882088867,-0.1339616630614318,-0.5677884691291342
860,0.3451082418762568,-0.131610515422656,-0.5577043139036288
861,0.3803995769435139,-0.1145725826569892,-0.4846280187798716
862,0.3843174354765659,-0.0982968395745901,-0.4148207821153065
863,0.3901942232761438,-0.0944969852427434,-0.3985230727393857
864,0.4039067281418257,-0.0846547040809145,-0.3563091813732838
865,0.4156909120107711,-0.0695525561374713,-0.2915355356912451
866,0.4254855583434009,-0.0598947610720884,-0.2501129117057309
867,0.4392286714788723,-0.0470113512674063,-0.1948555122291687
868,0.46469475194371,-0.0226988488624566,-0.0905783311076812
869,0.4941092992113892,0.0110385138975228,0.0541224088032986
870,0.5392258888810657,0.0509083789081585,0.2251256673636722
871,0.5803940117479008,0.0950705899767117,0.414538949699568
872,0.6254799931477878,0.1421733384799119,0.6165643009027464
873,0.6764733706170423,0.186840452341743,0.8081431291436441
874,0.7058879178847215,0.224257940031439,0.96862805479799
875,0.7411792529519786,0.2538666779026969,1.0956209768079936
876,0.7548917578176605,0.269760126777584,1.1637885401203696
877,0.7509738992846084,0.2666644679686063,1.1505111502023178
878,0.7353024651524006,0.2498359724061435,1.0783331386368846
879,0.7058879178847215,0.221186390047481,0.9554540684815636
880,0.6607713282150449,0.1763510183944349,0.7631535766341235
881,0.605890700482528,0.1210305142724155,0.5258819814695965
882,0.5509794644802216,0.0676068129181177,0.2967458403388417
883,0.5058934830803345,0.020422640517175,0.0943712591637299
884,0.4607768934106581,-0.0215552270585154,-0.0856732968171846
885,0.4294034168764529,-0.0552306112990241,-0.230108208670121
886,0.4098141242111931,-0.0738272212094448,-0.3098697250938599
887,0.4039067281418257,-0.0780755632670071,-0.3280910141583812
888,0.4039067281418257,-0.0801698865272637,-0.3370736405577214
889,0.3999888696087737,-0.083361845851186,-0.3507640667840774
890,0.4039067281418257,-0.075934806748711,-0.3189092338760718
891,0.4254855583434009,-0.0600113487297042,-0.2506129602851505
892,0.4294034168764529,-0.0506948393902285,-0.2106541228264958
893,0.4352802046760309,-0.0461754876442725,-0.1912704636409723
894,0.4451054592784502,-0.0377478112207051,-0.1551238619372039
895,0.4490233178115022,-0.0309033848988632,-0.1257678758133699
896,0.4490233178115022,-0.0319934443602722,-0.1304431793258293
897,0.4451054592784502,-0.0359512159200729,-0.1474182012674122
898,0.4451054592784502,-0.0347809226551764,-0.1423987721392932
899,0.4490233178115022,-0.0301966688070457,-0.1227367455462971
900,0.4490233178115022,-0.0319212559246568,-0.1301335605769994
901,0.4392286714788723,-0.0391751430806562,-0.1612457386737709
902,0.4352802046760309,-0.0427934823158451,-0.1767649233920812
903,0.4352802046760309,-0.0452221872897083,-0.1871817247657905
904,0.4254855583434009,-0.0514046426922874,-0.2136984942472821
905,0.419608770543823,-0.0572659219176881,-0.2388377277663413
906,0.419608770543823,-0.0607114341405837,-0.2536156513275967
907,0.4156909120107711,-0.0586611333661903,-0.244821838924254
908,0.4294034168764529,-0.0478739869660616,-0.198555387194414
909,0.4392286714788723,-0.038636778424165,-0.1589366736561399
910,0.4352802046760309,-0.0390910932396992,-0.1608852459386866
911,0.4294034168764529,-0.045340482621157,-0.1876890976185657
912,0.419608770543823,-0.0590093550215428,-0.2463153738973641
913,0.3901942232761438,-0.0802643449117067,-0.337478775903271
914,0.3803995769435139,-0.0962449824991637,-0.4060202946818911
915,0.3803995769435139,-0.0942800382932635,-0.3975925796141669
916,0.3941120818091958,-0.0769617747051973,-0.3233139356965921
917,0.4039067281418257,-0.070025181561484,-0.2935626428199773
918,0.3901942232761438,-0.084166961046273,-0.3542172342788662
919,0.3843174354765659,-0.087005271423776,-0.3663908476891264
920,0.3803995769435139,-0.0869492686010537,-0.3661506496053973
921,0.3588207467419387,-0.1181342145241214,-0.4999039835946409
922,0.3646975345415166,-0.1146687968614607,-0.4850406848995093
923,0.3588207467419387,-0.0769020880349737,-0.3230579374608787
924,0.374522789143936,-0.1423827352443372,-0.6039067450115531
925,0.2941148644070023,-0.1584223990020759,-0.6727014291183179
926,0.6509766818824151,0.2363621228669046,1.0205433222944564
927,1.503906727835743,0.9008592489106256,3.870594954703226
928,1.503906727835743,1.21873794091873,5.233987886828643
929,1.503906727835743,0.860447463437263,3.697267380146745
930,0.5509794644802216,0.1989487707639919,0.860076134317823
931,0.3588207467419387,-0.1424901628147015,-0.6043675056533716
932,0.3803995769435139,-0.1069895005850928,-0.4521039120672173
933,0.3549028882088867,-0.0798492907180608,-0.3356985938140248
934,0.3392008458068894,-0.138873012991158,-0.5888534223635984
935,0.3294061994742595,-0.1402012275514962,-0.5945501815029778
936,0.3392008458068894,-0.1175636313010502,-0.497456732007533
937,0.3392008458068894,-0.126723127101337,-0.5367421328535422
938,0.3352829872738374,-0.1307951794247329,-0.55420730902465
939,0.3392008458068894,-0.1220674451950462,-0.5167737487974657
940,0.3451082418762568,-0.1156384296392932,-0.489199474114674
941,0.3588207467419387,-0.1079841953041715,-0.4563701928331511
942,0.3588207467419387,-0.0981752102227069,-0.4142991095311866
943,0.374522789143936,-0.0891775881361165,-0.3757079907578649
944,0.3803995769435139,-0.0805267410256169,-0.3386042020992276
945,0.3901942232761438,-0.0686641767811783,-0.2877252452695608
946,0.4098141242111931,-0.0510503547474968,-0.2121789407446131
947,0.4294034168764529,-0.0302306506431033,-0.1228824948408123
948,0.4549001056110801,-0.0033379405261212,-0.0075387117530917
949,0.4941092992113892,0.0354601477539035,0.1588676585726521
950,0.5392258888810657,0.0804661237131112,0.3518998783120798
951,0.5843118702809528,0.12723884188261,0.5525097177629197
952,0.6353052477502072,0.1783194926454862,0.7715964321901222
953,0.6803912291500942,0.2230331677674,0.9633749633192712
954,0.7058879178847215,0.2494882069198209,1.076841560188848
955,0.7215593520169293,0.2661911617629381,1.148481123177031
956,0.7313846066193487,0.2759887517829504,1.190503332658146
957,0.7215593520169293,0.2649608325331925,1.143204197676219
958,0.6862680169496722,0.233059999444156,1.0063803983591004
959,0.6411820355497851,0.1877839845676716,0.8121899721702626
960,0.5843118702809528,0.1262308228576679,0.5481862885787484
961,0.5058934830803345,0.0577060036574228,0.2542809198904804
962,0.4549001056110801,-0.001146028510134,0.0018624762647623
963,0.4039067281418257,-0.0501705609009415,-0.2084054738772889
964,0.3588207467419387,-0.0897464563825201,-0.3781478867495014
965,0.3352829872738374,-0.1190935523160287,-0.5040186172517275
966,0.3098169068089997,-0.1434822773549128,-0.6086227199410549
967,0.2901970058739504,-0.1568987836179908,-0.6661665889476336
968,0.2941148644070023,-0.1591981822180261,-0.6760287907190793
969,0.2901970058739504,-0.1631112096569506,-0.6928119035466183
970,0.2843202180743724,-0.1595986690007915,-0.6777464926687844
971,0.3098169068089997,-0.1454856464504259,-0.6172152407168462
972,0.3039095107396323,-0.1445939449771455,-0.613390701618122
973,0.2999916522065803,-0.147797256036728,-0.627129815839476
974,0.3196115531416296,-0.1297785694593881,-0.5498470329938047
975,0.3392008458068894,-0.1117735789723442,-0.4726229931629274
976,0.3352829872738374,-0.1111001147691028,-0.4697344814198521
977,0.3392008458068894,-0.1074151202106942,-0.4539294096671132
978,0.3549028882088867,-0.0985127963952047,-0.4157470285428674
979,0.3451082418762568,-0.0963765807176234,-0.4065847240866895
980,0.3549028882088867,-0.0959114752081799,-0.4045898701370209
981,0.3490261004093087,-0.0981324244155036,-0.4141155996936201
982,0.3392008458068894,-0.1066773713761951,-0.450765178871127
983,0.3352829872738374,-0.110935357793857,-0.4690278329365913
984,0.3392008458068894,-0.1101521563141933,-0.4656686541408749
985,0.3294061994742595,-0.1129022026081515,-0.4774636997808159
986,0.3352829872738374,-0.1144310676061882,-0.4840210557310663
987,0.3352829872738374,-0.1082991141380328,-0.4577208908291927
988,0.3490261004093087,-0.0976267551537474,-0.4119467663782561
989,0.3588207467419387,-0.0876185672230321,-0.3690212950233776
990,0.3549028882088867,-0.0876397158392305,-0.3691120021848642
991,0.3451082418762568,-0.1047585338063543,-0.4425352167931688
992,0.3137347653420516,-0.1269945129151775,-0.5379061161898641
993,0.3098169068089997,-0.1371714055436203,-0.5815551679490945
994,0.3137347653420516,-0.1329801000048084,-0.5635785105270594
995,0.3196115531416296,-0.1208580962016737,-0.5115868082711249
996,0.3352829872738374,-0.1138756544014877,-0.481638868888299
997,0.3235294116746816,-0.1178982894909689,-0.4988920927985651
998,0.3294061994742595,-0.1193565975590738,-0.5051468275854599
999,0.3098169068089997,-0.1266818408724641,-0.5365650547603744
1000,0.3098169068089997,-0.1432905059873474,-0.6078002057754435
1001,0.3294061994742595,-0.1192645706780257,-0.5047521210438107
1002,0.3137347653420516,-0.0998470433246221,-0.4214696607261889
1003,0.3196115531416296,-0.1761180151540688,-0.7485985515042891
1004,0.274494963471953,-0.1321945248296117,-0.5602091508674032
1005,0.7509738992846084,0.324579393996824,1.3989103125136604
1006,1.503906727835743,0.9663232818147746,4.151372502912299
1007,1.503906727835743,1.2101634988683876,5.197211802170356
1008,1.407857977236391,0.8028211581393587,3.4501061223369227
1009,0.4745200065461294,0.145668983237538,0.6315572446752946
1010,0.3196115531416296,-0.1669790315566692,-0.7094011282206074
1011,0.3451082418762568,-0.1156522216326221,-0.4892586284609617
1012,0.3352829872738374,-0.0770517476780787,-0.3236998329536051
1013,0.3392008458068894,-0.1229301367735539,-0.5204738634333707
1014,0.3137347653420516,-0.1328264666240526,-0.5629195715332634
1015,0.3098169068089997,-0.1275699257913237,-0.5403740823295123
1016,0.3137347653420516,-0.1339491085424871,-0.5677346223541668
1017,0.3196115531416296,-0.1298175330938141,-0.5500141493973949
1018,0.3137347653420516,-0.1256044748461533,-0.5319441938391689
1019,0.3235294116746816,-0.1259245982189326,-0.5333172142863661
1020,0.3235294116746816,-0.121317936889129,-0.5135590812134215
1021,0.3294061994742595,-0.1161734422580798,-0.4914941621242527
1022,0.3352829872738374,-0.1109601139107448,-0.4691340127958907
1023,0.3451082418762568,-0.1014473160969189,-0.4283332871411566
1024,0.3588207467419387,-0.0877591928567199,-0.3696244433307851
1025,0.3803995769435139,-0.0656615787325767,-0.274846996238095
1026,0.4156909120107711,-0.0321103018376589,-0.1309443851717718
1027,0.4549001056110801,0.0080659603791905,0.0413730218228228
1028,0.4999860870109672,0.0528757775419082,0.2335639095590917
1029,0.5548973230132735,0.1066122816966518,0.4640416729438665
1030,0.6196032053482099,0.1718985431686078,0.7440567532043814
1031,0.6901858754827241,0.24230308650503,1.0460243250727983
1032,0.7509738992846084,0.3020329321614089,1.3022077417416102
1033,0.7901830928849176,0.3411515330435299,1.469988801932833
1034,0.8117619230864929,0.363740476495231,1.5668735778568663
1035,0.8215565694191228,0.3710652870500175,1.5982899489148517
1036,0.8058851352869149,0.3562593914095323,1.5347869398188236
1037,0.7666759416866058,0.3177660073015302,1.369687456443886
1038,0.7098057764177734,0.2579052301815104,1.1129424701052322
1039,0.6293978516808398,0.1794739653522582,0.7765480063859307
1040,0.5451026766806437,0.0945731993427602,0.4124056237111197
1041,0.4745200065461294,0.0215056050914184,0.0990161324546645
1042,0.419608770543823,-0.0303129389632544,-0.123235432350973
1043,0.3843174354765659,-0.0693552284831405,-0.2906891904155428
1044,0.3392008458068894,-0.1119764620814519,-0.4734931659802926
1045,0.2999916522065803,-0.1549147364052539,-0.6576569404091915
1046,0.274494963471953,-0.1760262715948179,-0.7482050601398301
1047,0.2843202180743724,-0.1719927025768669,-0.7309049402243554
1048,0.2901970058739504,-0.1629006536102857,-0.6919088212291916
1049,0.2941148644070023,-0.159620882401637,-0.6778417667292126
1050,0.2999916522065803,-0.1563758870053518,-0.6639238669161545
1051,0.3098169068089997,-0.1455304627832644,-0.617407459550546
1052,0.3235294116746816,-0.1298058934134317,-0.549964226397318
1053,0.3392008458068894,-0.12131587840296,-0.5135502522935718
1054,0.3352829872738374,-0.1176734101175439,-0.4979275772270068
1055,0.3549028882088867,-0.1038323923913244,-0.4385629635684443
1056,0.3705743223410945,-0.0870787919932721,-0.366706180007199
1057,0.374522789143936,-0.0839095627647095,-0.3531132439622836
1058,0.3705743223410945,-0.0859842920520415,-0.3620118311200221
1059,0.3803995769435139,-0.0814060206557323,-0.3423754634740876
1060,0.3803995769435139,-0.0775871567799758,-0.3259962214932418
1061,0.374522789143936,-0.083637137500874,-0.3519448023882373
1062,0.3705743223410945,-0.0957182889752531,-0.4037612875639253
1063,0.3490261004093087,-0.1028924742100262,-0.4345316213068325
1064,0.3705743223410945,-0.100813264562994,-0.4256138177281692
1065,0.3588207467419387,-0.0946132406217381,-0.3990216961640691
1066,0.3803995769435139,-0.087239352714026,-0.3673948306068034
1067,0.3843174354765659,-0.077211702494139,-0.3243858848065883
1068,0.3941120818091958,-0.0671504876569112,-0.2812329791776635
1069,0.4039067281418257,-0.0646679634402258,-0.2705853451715038
1070,0.3843174354765659,-0.0740295378535601,-0.3107374683228748
1071,0.3803995769435139,-0.0910658518569617,-0.3838068205181293
1072,0.3490261004093087,-0.1101080841408205,-0.4654796270333948
1073,0.3451082418762568,-0.1258708108222965,-0.5330865182433323
1074,0.3392008458068894,-0.1246093936153895,-0.5276762553109726
1075,0.3646975345415166,-0.1021238751094118,-0.4312350726303679
1076,0.3803995769435139,-0.0891815564600904,-0.3757250110394831
1077,0.3588207467419387,-0.1053370432657686,-0.445016464287773
1078,0.3588207467419387,-0.1171361384343275,-0.4956232000103367
1079,0.3392008458068894,-0.1176985516000122,-0.4980354099328856
1080,0.3451082418762568,-0.1346587621760408,-0.5707783518414505
1081,0.3549028882088867,-0.1209247583202738,-0.51187272445118
1082,0.3549028882088867,-0.0868154205056001,-0.3655765703987443
1083,0.3392008458068894,-0.1649659882787673,-0.7007671145350217
1084,0.274494963471953,-0.200757380144077,-0.8542776577923544
1085,0.5843118702809528,0.1849081790056861,0.7998555405900608
1086,1.468615392768486,0.8585786575251773,3.689252005615171
1087,1.503906727835743,1.1952281969363183,5.133153764921281
1088,1.503906727835743,0.8877079090095733,3.8141883935845695
1089,0.6764733706170423,0.2865653929015381,1.235866919803968
1090,0.4294034168764529,-0.0642161271350028,-0.2686474033071809
1091,0.4156909120107711,-0.0802939619050991,-0.3376058042335026
1092,0.3843174354765659,-0.0661280254451386,-0.2768476026552871
1093,0.3588207467419387,-0.1267581816419103,-0.5368924830155949
1094,0.3294061994742595,-0.1511434484301565,-0.6414817531458493
1095,0.3392008458068894,-0.131686461603743,-0.5580300497554466
1096,0.3588207467419387,-0.1192146480554386,-0.5045380011531113
1097,0.3705743223410945,-0.1130461169693975,-0.4780809535568228
1098,0.3646975345415166,-0.1057424830055702,-0.4467554096450609
1099,0.3843174354765659,-0.100676096919418,-0.425025500862429
1100,0.3803995769435139,-0.0968613605232422,-0.4086639617872176
1101,0.3901942232761438,-0.0887795127383827,-0.3740006313236897
1102,0.4039067281418257,-0.0771133741485979,-0.3239641510612673
1103,0.4156909120107711,-0.0669117146297153,-0.2802088732345927
1104,0.4254855583434009,-0.0509770016160086,-0.2118643265740674
1105,0.4607768934106581,-0.0263069100814259,-0.1060534330515798
1106,0.4706021480130775,-0.0068658704380997,-0.0226701276924234
1107,0.4941092992113892,0.0082811023465882,0.0422957733161696
1108,0.5156881294129645,0.0360789713894781,0.1615218149920231
1109,0.5646919693459035,0.078168715859512,0.3420462149223779
1110,0.60980855901558,0.1288124921445886,0.5592591592912755
1111,0.6705965828174644,0.1852840757282986,0.8014677749036647
1112,0.7156825642173513,0.2316797225628928,1.0004603420873124
1113,0.7411792529519786,0.2561978860088788,1.1056196106742762
1114,0.7607991538870279,0.275347588719114,1.1877533616423093
1115,0.7803884465522877,0.2970266162669324,1.280735476131739
1116,0.7862652343518657,0.2961447745201108,1.2769532257478755
1117,0.7411792529519786,0.2598703317474934,1.1213708600959067
1118,0.6960932715520916,0.206334381442813,0.8917532792542253
1119,0.6353052477502072,0.1490350892146799,0.6459945920452259
1120,0.5745172239483228,0.0888535734423401,0.3878739463037034
1121,0.5196059879460164,0.0300493245997811,0.1356604470458003
1122,0.46469475194371,-0.0216568484227066,-0.0861091544357497
1123,0.4254855583434009,-0.0625845954339426,-0.26164970624321
1124,0.3999888696087737,-0.0898035291857779,-0.3783926740175209
1125,0.3803995769435139,-0.1055935834448094,-0.4461167741723421
1126,0.374522789143936,-0.1172547934810314,-0.4961321156945405
1127,0.3588207467419387,-0.1280711309358916,-0.5425237688886585
1128,0.3549028882088867,-0.1351202603654663,-0.5727577338682124
1129,0.3549028882088867,-0.1356489752495519,-0.5750254106713291
1130,0.3588207467419387,-0.1287549946947371,-0.5454568846928562
1131,0.374522789143936,-0.1184748999090543,-0.5013651952378677
1132,0.3705743223410945,-0.1158072268069199,-0.4899234511256879
1133,0.374522789143936,-0.1204306031188327,-0.5097532753469896
1134,0.3705743223410945,-0.1157591803105185,-0.4897173780064321
1135,0.3901942232761438,-0.1023989921458138,-0.4324150593119798
1136,0.3941120818091958,-0.0981547548418203,-0.4142113756804256
1137,0.3901942232761438,-0.0978496244523351,-0.4129026606678755
1138,0.4039067281418257,-0.0887036226570488,-0.3736751360856937
1139,0.4098141242111931,-0.0831058347291569,-0.3496660260437088
1140,0.3999888696087737,-0.087959534012231,-0.3704837136194357
1141,0.4039067281418257,-0.0898961138500372,-0.3787897729110545
1142,0.4039067281418257,-0.0885823662697516,-0.3731550631598499
1143,0.3901942232761438,-0.0970116084846167,-0.4093083805977713
1144,0.3843174354765659,-0.1139813596784404,-0.482092242552873
1145,0.3646975345415166,-0.1203146120902219,-0.5092557857304352
1146,0.3941120818091958,-0.1030977601497616,-0.4354120999495873
1147,0.4098141242111931,-0.0783311326853243,-0.3291871604159359
1148,0.4254855583434009,-0.0681189339098927,-0.2853866793458542
1149,0.4254855583434009,-0.0676803458131471,-0.2835055595153938
1150,0.4156909120107711,-0.0702042017735907,-0.294330466829671
1151,0.4156909120107711,-0.0864645273740859,-0.3640715773700653
1152,0.3705743223410945,-0.1095429929669884,-0.4630559310393597
1153,0.3843174354765659,-0.1165270711424824,-0.4930108888936507
1154,0.3803995769435139,-0.1064136830826118,-0.4496342104709345
1155,0.3999888696087737,-0.0943265766946255,-0.3977921844605583
1156,0.3901942232761438,-0.0973088812040838,-0.4105833937862138
1157,0.3803995769435139,-0.1171447814389901,-0.4956602701624594
1158,0.3588207467419387,-0.1297814442409896,-0.5498593630335823
1159,0.3451082418762568,-0.1373146637334538,-0.5821696073827483
1160,0.3705743223410945,-0.1422047310354565,-0.6031432786755636
1161,0.3646975345415166,-0.1056960074163472,-0.4465560742021512
1162,0.3843174354765659,-0.1042402198562602,-0.4403121499631269
1163,0.3039095107396323,-0.2195010306682961,-0.934669836599664
1164,0.2901970058739504,-0.1567125783820024,-0.6653679481168575
1165,0.8960877063564784,0.3817899166679384,1.644288263958766
1166,1.503906727835743,1.0029575511786637,4.308498177517225
1167,1.503906727835743,1.0544769273560304,4.529466600735543
1168,1.0921642826278133,0.5465435537896853,2.350922429887758
1169,0.4901914406783372,0.0541447085690637,0.2390063995317582
1170,0.4254855583434009,-0.0968088521261098,-0.4084387514182077
1171,0.4039067281418257,-0.0794286718896408,-0.3338945448097836
1172,0.3803995769435139,-0.0961582200377454,-0.4056481674218843
1173,0.374522789143936,-0.1271971373633852,-0.5387751796014977
1174,0.3549028882088867,-0.1289466141976211,-0.5462787475054879
1175,0.3705743223410945,-0.1139473277748205,-0.4819462785168155
1176,0.3999888696087737,-0.0912928219018446,-0.3847803030533779
1177,0.4156909120107711,-0.0728111195077537,-0.3055116290237687
1178,0.4254855583434009,-0.0560096377732911,-0.2334494807203002
1179,0.4607768934106581,-0.0307111222963554,-0.1249432547237485
1180,0.4706021480130775,-0.0147361965696899,-0.0564262343177095
1181,0.4706021480130775,-0.0129560857346257,-0.0487912761026917
1182,0.4843146528787593,-0.0035474853064363,-0.0084374567134431
1183,0.4999860870109672,0.0150214405882312,0.0712053219893988
1184,0.5156881294129645,0.0323264873157501,0.1454272783254902
1185,0.5353080303480138,0.049909050962809,0.2208395145266957
1186,0.5548973230132735,0.0704980425063424,0.3091464261120993
1187,0.5803940117479008,0.097804894773605,0.426266479502874
1188,0.615685346815158,0.1329489199127717,0.5770004440177282
1189,0.654894540415467,0.1695862187201388,0.7341391120126808
1190,0.6901858754827241,0.2114074880687673,0.9135120126693244
1191,0.7450971114850305,0.261003158155895,1.1262295925538228
1192,0.7803884465522877,0.2994018650778934,1.2909230021355929
1193,0.800008347487337,0.3192354934283774,1.3759901343193468
1194,0.8156797816195448,0.3361032097597306,1.4483363651471657
1195,0.8255050362219641,0.3435883698521496,1.4804404810328915
1196,0.796090488954285,0.3187918132189593,1.3740871742378664
1197,0.7509738992846084,0.2698879770200084,1.1643368943236376
1198,0.6960932715520916,0.2197566229573303,0.9493217469566994
1199,0.6450998940828371,0.1651734855565594,0.7152127436909369
1200,0.5745172239483228,0.0979469080375544,0.4268755794054611
1201,0.5098113416133866,0.0331062394727283,0.1487716628544366
1202,0.4607768934106581,-0.0163871266564163,-0.0635071317426259
1203,0.419608770543823,-0.055797500281515,-0.2325396155289618
1204,0.3901942232761438,-0.0858986266605912,-0.3616444092318381
1205,0.3705743223410945,-0.1026416253962184,-0.4334557218886706
1206,0.3646975345415166,-0.1120038131392243,-0.4736104756326555
1207,0.3549028882088867,-0.1173495184494344,-0.4965383944281058
1208,0.3549028882088867,-0.1173461420451339,-0.4965239129108634
1209,0.3588207467419387,-0.1171331110774814,-0.4956102155699486
1210,0.3549028882088867,-0.1139585031061832,-0.481994209907554
1211,0.3705743223410945,-0.1016966539639029,-0.4294027060550502
1212,0.3803995769435139,-0.0926844201342999,-0.3907489170001076
1213,0.374522789143936,-0.0931689781559203,-0.3928272034612369
1214,0.3803995769435139,-0.0905883459957638,-0.3817587810220153
1215,0.3843174354765659,-0.0854258677516196,-0.3596167295814048
1216,0.3843174354765659,-0.0843783195146663,-0.3551237582114139
1217,0.3843174354765659,-0.0817460543675444,-0.3438338800682932
1218,0.3901942232761438,-0.0809831500750751,-0.3405617566250073
1219,0.374522789143936,-0.0893476167485805,-0.3764372494792598
1220,0.3705743223410945,-0.0971430573611527,-0.4098721694697869
1221,0.3646975345415166,-0.1009435120226135,-0.426172453680616
1222,0.3549028882088867,-0.11113383349969,-0.4698791022457163
1223,0.3392008458068894,-0.1229236341518337,-0.52044597345925
1224,0.3490261004093087,-0.1190960686117599,-0.5040294097329516
1225,0.3588207467419387,-0.1007556473443909,-0.4253666954435142
1226,0.374522789143936,-0.0898697725676017,-0.3786767942207598
1227,0.3705743223410945,-0.0944307919912122,-0.3982391675467415
1228,0.3588207467419387,-0.0970219687039496,-0.409352815944238
1229,0.3705743223410945,-0.0965299599573394,-0.4072425730605938
1230,0.3451082418762568,-0.1128698263370239,-0.4773248368109669
1231,0.3196115531416296,-0.1392169584778396,-0.5903286166983169
1232,0.3137347653420516,-0.148987063873634,-0.6322329436558687
1233,0.3196115531416296,-0.1360836091659545,-0.5768895708827035
1234,0.3451082418762568,-0.1163740201426368,-0.4923544477521384
1235,0.3392008458068894,-0.1139515174943497,-0.4819642483717863
1236,0.3352829872738374,-0.1284235846759952,-0.5440354554226718
1237,0.3196115531416296,-0.1331992655316229,-0.5645185192087889
1238,0.3098169068089997,-0.1400556058094278,-0.5939256047103478
1239,0.3196115531416296,-0.1539550331121818,-0.6535407391047058
1240,0.3098169068089997,-0.12898875949545,-0.5464595101757356
1241,0.3098169068089997,-0.1363456605864216,-0.578013518676314
1242,0.2549056708066933,-0.2420398308644199,-1.031339546330314
1243,0.2490288830071153,-0.1454496154263461,-0.6170607023825613
1244,0.9156769990217384,0.4219108440562261,1.8163683379201687
1245,1.503906727835743,1.0515181531854234,4.516776313863915
1246,1.503906727835743,1.0930155204131595,4.694759986889303
1247,1.0509655514911889,0.5343987230964453,2.298832822294302
1248,0.3646975345415166,-0.0241852328892651,-0.096953484672624
1249,0.3039095107396323,-0.1799322750448867,-0.7649580468311983
1250,0.3294061994742595,-0.1217534796936636,-0.5154271396780808
1251,0.3039095107396323,-0.1262234833660798,-0.5345991432340522
1252,0.2999916522065803,-0.1646028182272284,-0.6992094653629434
1253,0.2843202180743724,-0.1618847127510473,-0.6875514150180583
1254,0.2901970058739504,-0.1511620525767957,-0.641561546987569
1255,0.3098169068089997,-0.1446690840726205,-0.6137129758512572
1256,0.3137347653420516,-0.131664061982305,-0.5579339769883228
1257,0.3235294116746816,-0.120371481323572,-0.5094996998799339
1258,0.3352829872738374,-0.1147353186499341,-0.4853259991986969
1259,0.3352829872738374,-0.1095427924696939,-0.4630550710993854
1260,0.3451082418762568,-0.0982668849048842,-0.4146923054794453
1261,0.3646975345415166,-0.0832771023197867,-0.3504005987861965
1262,0.374522789143936,-0.0698656651771499,-0.2928784714161457
1263,0.3901942232761438,-0.0507252798125241,-0.2107846828723629
1264,0.4254855583434009,-0.023622882360482,-0.0945415434019574
1265,0.4451054592784502,0.0047940837324126,0.0273398273774101
1266,0.4803967943457073,0.0380801961926014,0.1701051388220545
1267,0.5254827757455944,0.077658309767311,0.3398570651740115
1268,0.5548973230132735,0.1191920126253669,0.517996583000601
1269,0.6196032053482099,0.1706701939097938,0.7387883198687936
1270,0.6705965828174644,0.2334586223291991,1.008090105985673
1271,0.7254772105499813,0.2823753020627893,1.2178954722733863
1272,0.7450971114850305,0.3010428486392442,1.29796123856203
1273,0.7411792529519786,0.3060263032869362,1.3193354514773694
1274,0.7548917578176605,0.3075430756322517,1.3258409416131909
1275,0.7254772105499813,0.2898923492623956,1.2501363530875529
1276,0.6901858754827241,0.246724572672372,1.0649882353366884
1277,0.6254799931477878,0.1883327332713721,0.8145435747329633
1278,0.5646919693459035,0.1207987052111966,0.5248877442224507
1279,0.4843146528787593,0.0500066020536093,0.2212579145989939
1280,0.4294034168764529,-0.0153057320961827,-0.0588689922972057
1281,0.3646975345415166,-0.0706055270374751,-0.2960517650544964
1282,0.3294061994742595,-0.1114226954204745,-0.4711180412216818
1283,0.3039095107396323,-0.1350032445004725,-0.5722558486922313
1284,0.2901970058739504,-0.1473260394226324,-0.6251087511462136
1285,0.2843202180743724,-0.1554349508308242,-0.6598881584456435
1286,0.2784434302747945,-0.1598707397655589,-0.6789134137838126
1287,0.274494963471953,-0.1618152770704763,-0.6872536029327947
1288,0.2784434302747945,-0.1635602227519213,-0.6947377365625009
1289,0.274494963471953,-0.1593653416163198,-0.6767457432796057
1290,0.2941148644070023,-0.1463174200254362,-0.6207827469442496
1291,0.3039095107396323,-0.1341354761299431,-0.5685339595161188
1292,0.3098169068089997,-0.1260495437234324,-0.5338531099661293
1293,0.3235294116746816,-0.1161815624276592,-0.4915289898182459
1294,0.3294061994742595,-0.1072249604553036,-0.4531138077630143
1295,0.3352829872738374,-0.1029661871469377,-0.434847778695541
1296,0.3352829872738374,-0.1012582493887529,-0.4275223733551921
1297,0.3352829872738374,-0.1041935451691384,-0.4401119605823005
1298,0.3235294116746816,-0.1121030295057916,-0.4740360181315078
1299,0.3196115531416296,-0.1193396971721285,-0.5050743412292156
1300,0.3098169068089997,-0.1271870743185269,-0.5387320188468439
1301,0.2999916522065803,-0.1380664510500808,-0.5853940497241829
1302,0.2941148644070023,-0.1432733418116574,-0.6077265880199604
1303,0.2999916522065803,-0.1376178310990593,-0.5834699029165775
1304,0.3098169068089997,-0.128969958820547,-0.5463788734173545
1305,0.3137347653420516,-0.1226346564092493,-0.519206537719496
1306,0.3235294116746816,-0.1157257403485377,-0.4895739528289622
1307,0.3294061994742595,-0.1084527437496074,-0.4583798136568375
1308,0.3294061994742595,-0.1074829343624933,-0.4542202669582292
1309,0.3235294116746816,-0.1172890007994198,-0.4962788320907326
1310,0.3039095107396323,-0.1316112800736872,-0.5577075935188962
1311,0.3039095107396323,-0.1367679739758052,-0.5798248357123512
1312,0.3137347653420516,-0.1243088279226387,-0.5263871184438643
1313,0.3352829872738374,-0.1028895480363319,-0.4345190708445546
1314,0.3451082418762568,-0.0951582259090906,-0.401359157301193
1315,0.3352829872738374,-0.1016483890167727,-0.4291956959929066
1316,0.3490261004093087,-0.0967602442816981,-0.4082302706575184
1317,0.3294061994742595,-0.0961832042289068,-0.4057553254997949
1318,0.3392008458068894,-0.1183294447532624,-0.5007413329396586
1319,0.3294061994742595,-0.1034878755891778,-0.437085318841527
1320,0.3392008458068894,-0.0835934962051116,-0.3517576233300394
1321,0.2999916522065803,-0.1741228890705942,-0.7400413852981346
1322,0.2549056708066933,-0.1717874352077687,-0.7300245412317191
1323,0.6607713282150449,0.2659536088710719,1.147462250437464
1324,1.503906727835743,0.9428216987576358,4.050573383501537
1325,1.503906727835743,1.233080184471032,5.295502275750098
1326,1.45686181716933,0.8435114474865721,3.6246282098403992
1327,0.5058934830803345,0.1837162692873168,0.7947433977298691
1328,0.3490261004093087,-0.135804595565647,-0.5756928717009402
1329,0.3646975345415166,-0.0936721787946145,-0.3949854487651378
1330,0.3451082418762568,-0.0672107437031883,-0.2814914194873711
1331,0.3352829872738374,-0.1214367155263093,-0.5140685269815418
1332,0.3196115531416296,-0.130389504811833,-0.5524673562883516
1333,0.3098169068089997,-0.1208766882070684,-0.5116665500386182
1334,0.3294061994742595,-0.1229684483290762,-0.5206381830475224
1335,0.3352829872738374,-0.1075806121982105,-0.4546392106439504
1336,0.3549028882088867,-0.0889140714506225,-0.3745777583908257
1337,0.3588207467419387,-0.0859042832695723,-0.3616686706274539
1338,0.3646975345415166,-0.0834334869961226,-0.3510713381838648
1339,0.374522789143936,-0.0686703676252826,-0.2877517980184801
1340,0.3941120818091958,-0.0513068348922095,-0.2132789931398296
1341,0.4098141242111931,-0.043041514525893,-0.1778287422972821
1342,0.4039067281418257,-0.0326304276128669,-0.1331752229836902
1343,0.4490233178115022,-0.0087718250722865,-0.0308448344045541
1344,0.4607768934106581,0.0197617290372663,0.0915365864941786
1345,0.4999860870109672,0.0498901693244042,0.2207585305129971
1346,0.5353080303480138,0.0862272461956858,0.3766095360253146
1347,0.5745172239483228,0.1257866558346016,0.5462812405363451
1348,0.615685346815158,0.1683866233147973,0.7289940049697369
1349,0.6705965828174644,0.2174663073630354,0.9394985025175324
1350,0.7156825642173513,0.2680789466307177,1.1565778991195923
1351,0.7548917578176605,0.3054940916525341,1.3170527769886995
1352,0.7764705880192357,0.3201055926508649,1.379722020601794
1353,0.7666759416866058,0.3232937275139669,1.3933960435806765
1354,0.7803884465522877,0.3214196669642943,1.385358131722987
1355,0.7411792529519786,0.293796464106385,1.2668812394807727
1356,0.6901858754827241,0.2347525937063717,1.0136399949035648
1357,0.6196032053482099,0.1688299515038636,0.7308954552235007
1358,0.5607741108128516,0.1056903014368999,0.4600872670610311
1359,0.4941092992113892,0.0406838001660416,0.1812720881794261
1360,0.4392286714788723,-0.0143114878338119,-0.0546046435559946
1361,0.4039067281418257,-0.0512647551814997,-0.2130985117750511
1362,0.374522789143936,-0.0816873505490853,-0.3435820973184955
1363,0.3451082418762568,-0.107758097091591,-0.455400449617426
1364,0.3392008458068894,-0.1199876123816804,-0.5078532724363979
1365,0.3294061994742595,-0.1245149955301008,-0.5272713785906246
1366,0.3235294116746816,-0.1339218550748522,-0.5676177312693489
1367,0.3196115531416296,-0.1398150132233158,-0.5928936946148498
1368,0.3235294116746816,-0.1294181919493043,-0.5483013611306127
1369,0.3490261004093087,-0.1143137480073498,-0.4835178678299031
1370,0.3490261004093087,-0.1068634180292101,-0.4515631395339316
1371,0.3588207467419387,-0.0987395301622906,-0.4167194976743033
1372,0.374522789143936,-0.0889789050547873,-0.3748558320079156
1373,0.3705743223410945,-0.0853655099876269,-0.359357853000824
1374,0.3803995769435139,-0.0817867866712581,-0.3440085823568978
1375,0.3843174354765659,-0.0755805917041902,-0.3173899930452336
1376,0.3901942232761438,-0.0724236032777089,-0.3038495582325831
1377,0.3901942232761438,-0.0681161874761357,-0.2853748997945129
1378,0.3999888696087737,-0.0659472910044354,-0.2760724262586254
1379,0.3803995769435139,-0.07803051041462,-0.3278977808839877
1380,0.374522789143936,-0.0923063639411364,-0.3891274206410745
1381,0.3646975345415166,-0.0933499609475592,-0.3936034450438294
1382,0.374522789143936,-0.0942724971510674,-0.3975602353890622
1383,0.3646975345415166,-0.0961872777778156,-0.4057727970948736
1384,0.3843174354765659,-0.0798444712458595,-0.3356779229276111
1385,0.4039067281418257,-0.0618860885210528,-0.2586537854343675
1386,0.3999888696087737,-0.0666184542190162,-0.2789510689801032
1387,0.3901942232761438,-0.07092764616771,-0.2974333453758772
1388,0.4039067281418257,-0.0656833484651764,-0.2749403673897541
1389,0.3843174354765659,-0.0823193357867404,-0.3462927043138351
1390,0.3490261004093087,-0.1135946631161306,-0.4804336873455395
1391,0.3490261004093087,-0.1222335131188833,-0.5174860199855152
1392,0.3549028882088867,-0.1100929793811716,-0.4654148421860158
1393,0.3705743223410945,-0.0989839767884972,-0.4177679378838266
1394,0.3646975345415166,-0.0988615936244743,-0.4172430321728276
1395,0.3705743223410945,-0.1055640834051464,-0.4459902474607847
1396,0.3549028882088867,-0.108313231376789,-0.4577814401646004
1397,0.3392008458068894,-0.1243259443049431,-0.5264605312118292
1398,0.3451082418762568,-0.1434439058158075,-0.6084581430551979
1399,0.3392008458068894,-0.1117591842308016,-0.4725612536082722
1400,0.3451082418762568,-0.1183677376008109,-0.5009055723146503
1401,0.2784434302747945,-0.2365042555416112,-1.0075972683478287
1402,0.2686181756723751,-0.1368026240303904,-0.5799734510197214
1403,0.9705882350240448,0.4471326131877239,1.9245453961317536
1404,1.503906727835743,1.0516097730985663,4.517169274905852
1405,1.503906727835743,1.045846065547248,4.492448529741514
1406,1.027458400292877,0.5213734005114485,2.2429667538930094
1407,0.4901914406783372,0.0576195784562995,0.2539102391517852
1408,0.4254855583434009,-0.0753219772849712,-0.3162807866713131
1409,0.3999888696087737,-0.0642145717644182,-0.2686407322678342
1410,0.374522789143936,-0.0918775672764306,-0.3872882966083006
1411,0.3490261004093087,-0.13261914127831,-0.5620303458061465
1412,0.3352829872738374,-0.137337266341979,-0.5822665507686549
1413,0.3451082418762568,-0.1204326410523463,-0.5097620161157748
1414,0.374522789143936,-0.1105817398694454,-0.4675111531749816
1415,0.3490261004093087,-0.1171993229150243,-0.4958942004786532
1416,0.3588207467419387,-0.11732506350653,-0.4964335063146536
1417,0.374522789143936,-0.101547210717696,-0.4287617386962592
1418,0.3803995769435139,-0.0928053257595422,-0.391267485495115
1419,0.3843174354765659,-0.0907914618602297,-0.3826299521353288
1420,0.3941120818091958,-0.0800987478492318,-0.3367685242562268
1421,0.4098141242111931,-0.0680062801090268,-0.2849035032169122
1422,0.4156909120107711,-0.0564050035739508,-0.2351452185969673
1423,0.4392286714788723,-0.0374377624534552,-0.1537940518287871
1424,0.4607768934106581,-0.0168593619481947,-0.0655325655804323
1425,0.4803967943457073,0.0079906235452531,0.0410498994824417
1426,0.5254827757455944,0.0478898372474858,0.2121790356171745
1427,0.5705993654152709,0.0933541592858367,0.407177117871084
1428,0.60980855901558,0.1363888695206959,0.5917545093269937
1429,0.6607713282150449,0.1827599841167071,0.7906418568732949
1430,0.7000111300851435,0.223583722445817,0.9657363117712876
1431,0.7215593520169293,0.2464121749062425,1.06364835028915
1432,0.7353024651524006,0.2574492423020035,1.1109867219922422
1433,0.7353024651524006,0.2601831838640251,1.1227126938683605
1434,0.7254772105499813,0.2468721715362292,1.0656212920744692
1435,0.6901858754827241,0.2162349584998346,0.9342172037728343
1436,0.6509766818824151,0.1715331434502746,0.742489540912708
1437,0.5901886580805307,0.1155181634002488,0.5022393139758098
1438,0.5353080303480138,0.0572833100450616,0.2524679720646691
1439,0.4803967943457073,0.0046710085322549,0.0268119534989978
1440,0.4352802046760309,-0.0426704554684979,-0.1762372569005802
1441,0.3941120818091958,-0.0815893211580477,-0.343161645799594
1442,0.3705743223410945,-0.106732702573973,-0.4510024963317592
1443,0.3549028882088867,-0.1214879624079339,-0.5142883266660033
1444,0.3490261004093087,-0.1289364994552202,-0.5462353650182487
1445,0.3451082418762568,-0.1285398709023501,-0.5445342111527721
1446,0.3549028882088867,-0.1260860087572621,-0.5340095097835535
1447,0.3490261004093087,-0.1234220489157826,-0.5225836919774122
1448,0.3646975345415166,-0.1144562978057491,-0.4841292689476872
1449,0.3705743223410945,-0.1045476281720904,-0.4416306350821886
1450,0.374522789143936,-0.1029655890819317,-0.4348452135736167
1451,0.3705743223410945,-0.1041885786333852,-0.4400906589351209
1452,0.374522789143936,-0.1029974122472348,-0.434981704253058
1453,0.374522789143936,-0.1012380006627567,-0.4274355258545517
1454,0.3803995769435139,-0.0950604324238641,-0.4009397175906435
1455,0.3901942232761438,-0.0858141781496719,-0.3612822065872112
1456,0.3941120818091958,-0.0825073027199816,-0.3470989011263217
1457,0.3941120818091958,-0.0804578494718989,-0.3383087237932459
1458,0.3999888696087737,-0.0749170508549022,-0.3145440429175897
1459,0.3999888696087737,-0.0775799745014695,-0.3259654164471716
1460,0.3843174354765659,-0.0890809102201309,-0.3752933357631727
1461,0.374522789143936,-0.0988191220785054,-0.4170608702127898
1462,0.374522789143936,-0.1054943984683712,-0.4456913663068617
1463,0.3705743223410945,-0.0986216569401622,-0.4162139352633046
1464,0.4039067281418257,-0.0718265305508649,-0.3012886922286321
1465,0.4254855583434009,-0.0526899996023772,-0.2192114354117383
1466,0.4098141242111931,-0.0582764606243938,-0.2431719639545492
1467,0.4039067281418257,-0.0730829149520577,-0.3066773692796098
1468,0.3843174354765659,-0.0912098002458145,-0.3844242202397431
1469,0.3549028882088867,-0.112910938101247,-0.4775011666190924
1470,0.3549028882088867,-0.1239120609234634,-0.5246853707772972
1471,0.3549028882088867,-0.11512569949706,-0.4870003564336733
1472,0.374522789143936,-0.0979104290314073,-0.4131634536541062
1473,0.3803995769435139,-0.0932205903765204,-0.3930485700974621
1474,0.374522789143936,-0.0975212803090288,-0.4114943810456693
1475,0.3803995769435139,-0.0923280458029821,-0.3892204149119676
1476,0.3646975345415166,-0.0999684618200179,-0.4219904289393906
1477,0.3705743223410945,-0.1154164485379007,-0.488247389334181
1478,0.3843174354765659,-0.0756729107408429,-0.3177859526525851
1479,0.3999888696087737,-0.0591950736255332,-0.247111927546321
1480,0.3490261004093087,-0.162114794185037,-0.6885382424110276
1481,0.3196115531416296,-0.1016426499783901,-0.4291710810546778
1482,0.9058823526891084,0.4118202795558082,1.7730895505496875
1483,1.503906727835743,1.0151009625838925,4.360581697734296
1484,1.503906727835743,1.0918882044864846,4.689924889082049
1485,1.1568701649627495,0.6129527836229225,2.63575396109407
1486,0.5098113416133866,0.1072887676665727,0.4669431451509079
1487,0.4451054592784502,-0.0593589369761102,-0.2478147432418297
1488,0.4352802046760309,-0.0293887518528735,-0.1192715612078811
1489,0.4156909120107711,-0.0391985825993396,-0.1613462715968917
1490,0.3941120818091958,-0.0826909317705022,-0.3478864926066789
1491,0.3646975345415166,-0.1033222069003595,-0.4363747599865674
1492,0.3549028882088867,-0.1064303003516531,-0.4497054825244937
1493,0.3803995769435139,-0.0871220769630846,-0.3668918307708184
1494,0.4039067281418257,-0.0670017027709666,-0.2805948355492798
1495,0.3901942232761438,-0.0694789621257797,-0.2912198883770032
1496,0.4039067281418257,-0.0634078327962727,-0.2651806003530731
1497,0.4254855583434009,-0.04138025386204,-0.1707035366623684
1498,0.4294034168764529,-0.0333810544326866,-0.1363946879133492
1499,0.4294034168764529,-0.0334543796042771,-0.1367091821629066
1500,0.4451054592784502,-0.0231273117237253,-0.0924160234457291
1501,0.4490233178115022,-0.0095605643717901,-0.0342277651050659
1502,0.4706021480130775,0.0038244000087803,0.0231808196539115
1503,0.4843146528787593,0.0230932125875341,0.1058254370529679
1504,0.5098113416133866,0.0477815953300374,0.2117147822119633
1505,0.5451026766806437,0.0806585368326666,0.3527251449746322
1506,0.5843118702809528,0.1264128590332502,0.5489670481622618
1507,0.6411820355497851,0.1758249698276309,0.7608973357599571
1508,0.6764733706170423,0.218008758561079,0.9418250948561492
1509,0.7156825642173513,0.2546818902232313,1.099117451230286
1510,0.7450971114850305,0.2837298738221568,1.2237052783698934
1511,0.7548917578176605,0.2962513420128256,1.277410297486292
1512,0.7548917578176605,0.2945196903567235,1.2699831824006018
1513,0.7411792529519786,0.2825238517532779,1.218532607140156
1514,0.7098057764177734,0.2504320089098356,1.080889560243155
1515,0.6509766818824151,0.1929867403737601,0.8345047754959749
1516,0.5843118702809528,0.1260013269163163,0.5472019723843736
1517,0.5254827757455944,0.0671601391699405,0.2948300408639426
1518,0.4706021480130775,0.0150859509242824,0.0714820090981371
1519,0.4254855583434009,-0.0350945164271379,-0.1437437868980678
1520,0.3803995769435139,-0.072000641292719,-0.3020354593470929
1521,0.3705743223410945,-0.0896360862388074,-0.3776745053067096
1522,0.3490261004093087,-0.1042740818723855,-0.4404573853457225
1523,0.3352829872738374,-0.1225698879305412,-0.5189287434277889
1524,0.3235294116746816,-0.1299984843421499,-0.5507902556896468
1525,0.3294061994742595,-0.1264485931309628,-0.5355646469627074
1526,0.3294061994742595,-0.1265184461028875,-0.5358642488253189
1527,0.3235294116746816,-0.1279323196370093,-0.5419284023272833
1528,0.3352829872738374,-0.1219107058733068,-0.5161014883131417
1529,0.3392008458068894,-0.1127764142114565,-0.4769241889066709
1530,0.3490261004093087,-0.1047300388882152,-0.4424130010833113
1531,0.3549028882088867,-0.0985922125837706,-0.416087647379264
1532,0.3549028882088867,-0.0977852093389574,-0.4126263819725455
1533,0.3549028882088867,-0.0976839690895682,-0.4121921589688208
1534,0.3588207467419387,-0.0934771324234764,-0.3941488879935854
1535,0.3549028882088867,-0.0964100837126551,-0.40672841961514
1536,0.3451082418762568,-0.1089349855810629,-0.4604481658965809
1537,0.3352829872738374,-0.112650139516766,-0.4763825922832554
1538,0.3451082418762568,-0.1086508249999064,-0.4592293911322517
1539,0.3352829872738374,-0.1158990581864349,-0.4903173191543599
1540,0.3235294116746816,-0.1248217223225548,-0.5285869406318658
1541,0.3352829872738374,-0.1167504046265242,-0.4939687740910699
1542,0.3490261004093087,-0.1026091333155976,-0.4333163622078168
1543,0.3490261004093087,-0.0966651411925099,-0.4078223701505565
1544,0.3588207467419387,-0.0958766543797777,-0.4044405223747208
1545,0.3490261004093087,-0.0973027271691627,-0.4105569989131807
1546,0.3451082418762568,-0.1046691385900238,-0.4421517975543992
1547,0.3294061994742595,-0.120982084171777,-0.5121185970520574
1548,0.3098169068089997,-0.1385783965561655,-0.5875898020730426
1549,0.3039095107396323,-0.1423799957825177,-0.6038949953630977
1550,0.3235294116746816,-0.130984488359546,-0.5550192617292552
1551,0.3196115531416296,-0.121255233128457,-0.5132901425702623
1552,0.3294061994742595,-0.1239453129858093,-0.5248279900465995
1553,0.3235294116746816,-0.1259216042598528,-0.5333043730901769
1554,0.3137347653420516,-0.1262349506862783,-0.5346483269752155
1555,0.3098169068089997,-0.1452252771295343,-0.6160985075076986
1556,0.3039095107396323,-0.1483212999551445,-0.6293774587059383
1557,0.3098169068089997,-0.1189927958746653,-0.5035864693177053
1558,0.3039095107396323,-0.1600139880656596,-0.6795278108000534
1559,0.2490288830071153,-0.210902116826584,-0.8977887915642615
1560,0.4490233178115022,0.0584199196516167,0.2573429307930244
1561,1.227452835097264,0.6886877133180459,2.960583748234109
1562,1.503906727835743,1.1574712712842128,4.971212977862948
1563,1.503906727835743,0.9776619939395836,4.200004639507272
1564,0.7509738992846084,0.3396716851235084,1.4636416819606446
1565,0.3196115531416296,-0.1200691078855827,-0.5082028095296786
1566,0.3098169068089997,-0.1624349362375679,-0.689911342976339
1567,0.3294061994742595,-0.100654843207387,-0.4249343429412061
1568,0.3137347653420516,-0.13359768892596,-0.5662273712126809
1569,0.2901970058739504,-0.1628618097306104,-0.691742218457955
1570,0.2941148644070023,-0.1499743868021734,-0.6364676065519325
1571,0.2999916522065803,-0.1439179254919069,-0.6104912301803515
1572,0.3098169068089997,-0.1415238729380381,-0.6002230542593359
1573,0.3137347653420516,-0.1308023100224657,-0.5542378924100582
1574,0.3235294116746816,-0.1226270463027991,-0.5191738977042707
1575,0.3294061994742595,-0.1192525638902997,-0.504700623507377
1576,0.3352829872738374,-0.1115719703136635,-0.4717582865084356
1577,0.3490261004093087,-0.0951095661096008,-0.4011504537033395
1578,0.3705743223410945,-0.0814210992408977,-0.3424401360581828
1579,0.3646975345415166,-0.0778198506543597,-0.326994253735289
1580,0.3843174354765659,-0.065633916674714,-0.2747283526953655
1581,0.4156909120107711,-0.031208166733208,-0.1270750958606178
1582,0.4549001056110801,0.0087257657343971,0.0442029502844771
1583,0.4901914406783372,0.0404090753623358,0.1800937837976952
1584,0.5254827757455944,0.0798214921462091,0.3491350307641452
1585,0.5901886580805307,0.1415299307891665,0.6138047026028546
1586,0.654894540415467,0.2062464140330582,0.8913759839282649
1587,0.6960932715520916,0.250103297518424,1.07947970548086
1588,0.7353024651524006,0.2832824853189061,1.2217864132852507
1589,0.7607991538870279,0.3175367263985718,1.3687040625567712
1590,0.7803884465522877,0.326745294614771,1.408199936727037
1591,0.7411792529519786,0.2954133289100226,1.2738160297039112
1592,0.7058879178847215,0.255502165898742,1.102635642560824
1593,0.6647197950178864,0.2179334527224725,0.9415021054558366
1594,0.605890700482528,0.1515762211397318,0.6568935965816033
1595,0.5098113416133866,0.0657556693491581,0.2888062202204709
1596,0.4549001056110801,0.0021382238224045,0.0159487504633023
1597,0.4039067281418257,-0.0468066129550367,-0.1939773823795188
1598,0.3451082418762568,-0.1024530925346841,-0.4326470977897558
1599,0.3137347653420516,-0.1403790848009973,-0.595313017525
1600,0.2999916522065803,-0.1459028362157968,-0.6190045823486133
1601,0.3098169068089997,-0.1480640928372286,-0.6282742882969888
1602,0.2843202180743724,-0.1588788564551645,-0.6746591912489772
1603,0.2999916522065803,-0.1598464449498742,-0.6788092124616588
1604,0.2901970058739504,-0.153468444093932,-0.6514537416273326
1605,0.3039095107396323,-0.1566577409634375,-0.6651327484927019
1606,0.2843202180743724,-0.1599219771156271,-0.6791331725870924
1607,0.3098169068089997,-0.1498075213560131,-0.6357519147624837
1608,0.3098169068089997,-0.1377928539224045,-0.584220581984753
1609,0.3294061994742595,-0.1288679591545564,-0.5459413932490166
1610,0.3352829872738374,-0.1134709668330492,-0.4799031496205413
1611,0.3549028882088867,-0.1023659757831539,-0.4322734509669516
1612,0.3490261004093087,-0.1057527145918554,-0.4467992932798448
1613,0.3451082418762568,-0.1053140558578649,-0.4449178704837472
1614,0.3588207467419387,-0.1010550496901087,-0.4266508426741282
1615,0.3392008458068894,-0.113164506878299,-0.4785887320556319
1616,0.3352829872738374,-0.1219421145147943,-0.516236201085304
1617,0.3490261004093087,-0.1034680584163324,-0.4370003222875855
1618,0.374522789143936,-0.0890089584019507,-0.3749847318748757
1619,0.3392008458068894,-0.108145220916304,-0.4570608373682905
1620,0.3294061994742595,-0.1353041687473326,-0.5735465234105726
1621,0.3235294116746816,-0.1308837964126316,-0.5545873904142017
1622,0.3588207467419387,-0.0972493075914718,-0.4103278804585877
1623,0.3843174354765659,-0.0760608399788583,-0.3194497948495371
1624,0.3803995769435139,-0.0807052980505582,-0.3393700394828171
1625,0.3646975345415166,-0.0850682740168281,-0.3580829974287173
1626,0.374522789143936,-0.094859602507631,-0.4000783509900015
1627,0.3352829872738374,-0.1214826693016236,-0.5142656243461754
1628,0.3196115531416296,-0.1322483094257971,-0.5604398348992053
1629,0.3490261004093087,-0.1251031734257946,-0.5297940943497572
1630,0.3196115531416296,-0.1314252789262629,-0.5569098280311767
1631,0.3235294116746816,-0.1368953297969309,-0.5803710693252143
1632,0.3490261004093087,-0.1214952575676015,-0.5143196158633594
1633,0.3392008458068894,-0.1136667119028278,-0.4807427071352292
1634,0.3196115531416296,-0.1426287246258087,-0.6049618021528715
1635,0.3098169068089997,-0.1626417985726364,-0.690798582834329
1636,0.3451082418762568,-0.1113220993898423,-0.4706865812949488
1637,0.3549028882088867,-0.0911126815039572,-0.3840076745273247
1638,0.3235294116746816,-0.1868108935354613,-0.7944606843738162
1639,0.2901970058739504,-0.1260383256303566,-0.5338049951688937
1640,0.8058851352869149,0.3420324092623783,1.4737669111331335
1641,1.503906727835743,0.954107524351558,4.098978687898478
1642,1.503906727835743,1.199892745833597,5.153160179814737
1643,1.4725638595713273,0.8239400967770727,3.540685995718041
1644,0.4901914406783372,0.158376455920773,0.6860600436268448
1645,0.3451082418762568,-0.167872521252204,-0.7132333370677105
1646,0.3843174354765659,-0.104172238219813,-0.4400205743244426
1647,0.3549028882088867,-0.0738154028689016,-0.3098190358140462
1648,0.3451082418762568,-0.1393950570700023,-0.5910924878475349
1649,0.3352829872738374,-0.1396059546989999,-0.5919970352236452
1650,0.3352829872738374,-0.1183529020202392,-0.5008419419858362
1651,0.3490261004093087,-0.1272719816638274,-0.5390961894483299
1652,0.3451082418762568,-0.1247332647027301,-0.5282075427776096
1653,0.3549028882088867,-0.109321026583444,-0.4621039093842368
1654,0.374522789143936,-0.0983799163909326,-0.4151771015134686
1655,0.3843174354765659,-0.0857722008636723,-0.3611021645256306
1656,0.3999888696087737,-0.0668711736703628,-0.2800349916287084
1657,0.4294034168764529,-0.0450427694142077,-0.1864121951637616
1658,0.4451054592784502,-0.0228196464261454,-0.0910964361228707
1659,0.4745200065461294,0.0022502177954038,0.0164290965672305
1660,0.4999860870109672,0.0290351297243217,0.1313105294207337
1661,0.5254827757455944,0.0533536147715399,0.2356133703061167
1662,0.5548973230132735,0.0831746061161604,0.3635166549565778
1663,0.5960654458801087,0.1246216493403147,0.54128448655401
1664,0.6411820355497851,0.1668620729321398,0.7224551545571671
1665,0.6803912291500942,0.2090361160191047,0.9033411142315412
1666,0.7353024651524006,0.2622038516750075,1.1313794094454976
1667,0.7862652343518657,0.31194467087945,1.344719539018373
1668,0.8058851352869149,0.3330257239656683,1.4351369199316493
1669,0.8058851352869149,0.3319107968342877,1.430354958104776
1670,0.800008347487337,0.3262719392518949,1.4061696988647507
1671,0.7862652343518657,0.3104802563747815,1.338438613509481
1672,0.7450971114850305,0.2731138047993011,1.1781725835507386
1673,0.6960932715520916,0.2183644869291383,0.9433508263850692
1674,0.6293978516808398,0.1568005117414901,0.6793007634061884
1675,0.5705993654152709,0.094289581247246,0.4111891756868618
1676,0.5098113416133866,0.034022244925181,0.1527004425778366
1677,0.4549001056110801,-0.0192843402109237,-0.0759333829585226
1678,0.4156909120107711,-0.0614627235768872,-0.2568379582427471
1679,0.3843174354765659,-0.0914999733321979,-0.3856687828512505
1680,0.3646975345415166,-0.1094454611644211,-0.4626376136949737
1681,0.3646975345415166,-0.1158628469973009,-0.4901620080857971
1682,0.3549028882088867,-0.1157985396660072,-0.4898861916716303
1683,0.3646975345415166,-0.1172793908832634,-0.4962376148210781
1684,0.3549028882088867,-0.118862089237872,-0.5030258639381496
1685,0.3646975345415166,-0.111677907165682,-0.472212653406642
1686,0.3803995769435139,-0.099688755951007,-0.4207907605927191
1687,0.3803995769435139,-0.0928784520678997,-0.3915811268132456
1688,0.3941120818091958,-0.0860261425786445,-0.3621913295060757
1689,0.4039067281418257,-0.0718676783802765,-0.3014651767216243
1690,0.419608770543823,-0.0581107809598727,-0.2424613580244128
1691,0.4254855583434009,-0.0522318548432437,-0.2172464363658854
1692,0.4294034168764529,-0.0481591621760638,-0.1997785137376819
1693,0.4352802046760309,-0.0414173849828232,-0.1708627933502511
1694,0.4392286714788723,-0.0400583146779153,-0.1650336928331088
1695,0.4294034168764529,-0.0467980187049333,-0.1939405213374216
1696,0.4254855583434009,-0.0533929653707782,-0.2222264804092797
1697,0.4156909120107711,-0.0604512097976873,-0.2524995399341885
1698,0.4098141242111931,-0.0714222698494286,-0.2995548038085166
1699,0.3941120818091958,-0.0788259518129886,-0.3313094571231363
1700,0.3999888696087737,-0.0818498078005864,-0.344278882205428
1701,0.3941120818091958,-0.0833783036371865,-0.3508346548092443
1702,0.3999888696087737,-0.0741834395559933,-0.3113975581578177
1703,0.4254855583434009,-0.0573460017340343,-0.2391811929257158
1704,0.4254855583434009,-0.0495827074958397,-0.2058841498697608
1705,0.4254855583434009,-0.0513965784538551,-0.2136639064439533
1706,0.419608770543823,-0.060853765542452,-0.2542261157349493
1707,0.3941120818091958,-0.0821394133259952,-0.3455210105278786
1708,0.374522789143936,-0.1016416146200004,-0.429166640365993
1709,0.3803995769435139,-0.1007733355619113,-0.4254425608329081
1710,0.3901942232761438,-0.0839532018805534,-0.353300413670734
1711,0.4039067281418257,-0.0750375840979789,-0.3150610142523425
1712,0.3901942232761438,-0.086742524553775,-0.3652639170879135
1713,0.3843174354765659,-0.0952642992773278,-0.4018141097222809
1714,0.3803995769435139,-0.0917621256199096,-0.3867931632680338
1715,0.3705743223410945,-0.1086605693670225,-0.459271185066819
1716,0.3705743223410945,-0.1161268614314887,-0.491294375314556
1717,0.374522789143936,-0.0807729488542935,-0.3396601961683206
1718,0.374522789143936,-0.1184927507428211,-0.5014417580940832
1719,0.274494963471953,-0.2142835378347321,-0.9122918256428464
1720,0.4098141242111931,-0.0187832383658959,-0.0737841394547507
1721,1.1313734762281225,0.5859684166567403,2.5200170585443598
1722,1.503906727835743,1.0944570560423412,4.700942784093537
1723,1.503906727835743,0.9838261905388408,4.226443096336723
1724,0.8803856639544811,0.4141009016080382,1.7828712190447262
1725,0.4392286714788723,-0.0166937306156757,-0.0648221669479591
1726,0.4254855583434009,-0.0778534367774559,-0.3271383058029429
1727,0.419608770543823,-0.0409610257327678,-0.1689054524158681
1728,0.3843174354765659,-0.0890245949072991,-0.375051797398332
1729,0.3451082418762568,-0.1383010978971927,-0.5864004583352064
1730,0.3294061994742595,-0.1410271343222479,-0.5980925247997996
1731,0.3392008458068894,-0.1333780379099201,-0.5652852802505244
1732,0.3549028882088867,-0.1249443255196508,-0.5291127900724832
1733,0.3549028882088867,-0.1147999465348912,-0.4856031904788425
1734,0.3705743223410945,-0.1055465819075573,-0.4459151829197679
1735,0.3803995769435139,-0.0936023780066516,-0.3946860707213809
1736,0.3901942232761438,-0.0823551199459492,-0.3464461838359733
1737,0.3999888696087737,-0.0746055912130675,-0.3132081815182703
1738,0.4098141242111931,-0.0631379529622565,-0.2640230762173834
1739,0.4254855583434009,-0.0462895723786772,-0.1917597770943787
1740,0.4451054592784502,-0.0305474005349244,-0.1242410463090855
1741,0.4549001056110801,-0.0142090197745982,-0.0541651544325871
1742,0.4843146528787593,0.0092857992672493,0.046604953877799
1743,0.5098113416133866,0.038746360029563,0.1729623390364301
1744,0.5451026766806437,0.0734617731743381,0.3218579715760075
1745,0.5901886580805307,0.1178960157217225,0.5124380065281643
1746,0.6411820355497851,0.1699237031334553,0.7355865945756407
1747,0.6901858754827241,0.2196325985342391,0.9487898018276149
1748,0.7313846066193487,0.2591048497369043,1.1180876807286035
1749,0.7548917578176605,0.2857324833433137,1.2322945413044557
1750,0.7705938002196577,0.2989233005196415,1.2888704218504388
1751,0.7666759416866058,0.2967691992352593,1.2796314053952744
1752,0.7450971114850305,0.2758297404801423,1.1898213275668104
1753,0.7058879178847215,0.2346308313785841,1.0131177519810963
1754,0.6450998940828371,0.1771722221218922,0.7666757484122237
1755,0.5803940117479008,0.1101829542845437,0.4793564137291396
1756,0.5098113416133866,0.0409261844238853,0.182311682818233
1757,0.4490233178115022,-0.0197212762652993,-0.0778074171209359
1758,0.4039067281418257,-0.0639590944450542,-0.2675449810259411
1759,0.374522789143936,-0.0955262401060842,-0.4029375831841398
1760,0.3451082418762568,-0.120677589319474,-0.5108126078809182
1761,0.3294061994742595,-0.140261603826177,-0.5948091374765533
1762,0.3137347653420516,-0.1530123323567874,-0.649497462284562
1763,0.3098169068089997,-0.1576972152596218,-0.6695910904456995
1764,0.3098169068089997,-0.1567915508007021,-0.6657066636086316
1765,0.3137347653420516,-0.1548446172904378,-0.6573561970503233
1766,0.3137347653420516,-0.1501017675339173,-0.6370139470073165
1767,0.3294061994742595,-0.1399654469618971,-0.5935389102304021
1768,0.3352829872738374,-0.128905976197108,-0.5461044496866398
1769,0.3451082418762568,-0.121522975641012,-0.5144384996587509
1770,0.3490261004093087,-0.1167210908757173,-0.4938430463789929
1771,0.3549028882088867,-0.1114459471064599,-0.4712177685237297
1772,0.3549028882088867,-0.1072193638563772,-0.4530898037526418
1773,0.3646975345415166,-0.1062892068201824,-0.4491003273869772
1774,0.3549028882088867,-0.1028344760967487,-0.4342828653514722
1775,0.374522789143936,-0.0959987521578294,-0.4049642040552143
1776,0.3646975345415166,-0.0969129583682633,-0.4088852667660769
1777,0.3588207467419387,-0.1055780411033584,-0.4460501125211659
1778,0.3549028882088867,-0.1100055752140213,-0.4650399626274702
1779,0.3549028882088867,-0.1086770558066373,-0.4593418959883493
1780,0.3549028882088867,-0.1082456946722475,-0.457491772854567
1781,0.3549028882088867,-0.1087749399861669,-0.4597617246899665
1782,0.3646975345415166,-0.1002667759563224,-0.4232699088014138
1783,0.3803995769435139,-0.0788868538531896,-0.3315706681235891
1784,0.4039067281418257,-0.063187873093476,-0.2642371854225191
1785,0.3941120818091958,-0.0668857536208695,-0.280097525551149
1786,0.3803995769435139,-0.080874139367741,-0.3400942058528357
1787,0.3588207467419387,-0.1054761309293837,-0.4456130161872435
1788,0.3235294116746816,-0.1399514190031455,-0.593478743820086
1789,0.3039095107396323,-0.1530742511161042,-0.6497630340291957
1790,0.3352829872738374,-0.1327937366589974,-0.5627791915576726
1791,0.3451082418762568,-0.113902617570374,-0.4817545148715357
1792,0.3392008458068894,-0.1198895817516508,-0.507432815603416
1793,0.3352829872738374,-0.1324395978368451,-0.5612602776472638
1794,0.3235294116746816,-0.1338359148612408,-0.5672491306592139
1795,0.3137347653420516,-0.1428940864791039,-0.6060999485097502
1796,0.3235294116746816,-0.1514944231477836,-0.6429870961002468
1797,0.3352829872738374,-0.1143409788610109,-0.4836346619225891
1798,0.3352829872738374,-0.1169661683321495,-0.494894192241624
1799,0.2549056708066933,-0.2397050794935811,-1.0213257152768298
1800,0.2490288830071153,-0.1701901203678219,-0.7231736014930248
1801,0.8902109185569005,0.4033346993721565,1.7366945975747354
1802,1.503906727835743,1.0474302149957255,4.4992430026514185
1803,1.503906727835743,1.055599940052931,4.534283241838378
1804,0.9823418106232006,0.4978114366151596,2.141908658931502
1805,0.4607768934106581,0.0326426430436181,0.1467832814035927
1806,0.4156909120107711,-0.0726704392760249,-0.3049082465434359
1807,0.3843174354765659,-0.0643644307779178,-0.2692834828672215
1808,0.3490261004093087,-0.1053317447668691,-0.4449937388389396
1809,0.3352829872738374,-0.1367733430998747,-0.5798478640750321
1810,0.3196115531416296,-0.132958861584755,-0.5634874181936684
1811,0.3352829872738374,-0.1241360277511341,-0.5256459724078997
1812,0.3490261004093087,-0.1154897004506893,-0.4885615693741508
1813,0.3549028882088867,-0.1017909125491859,-0.4298069844549491
1814,0.374522789143936,-0.0842711839473733,-0.3546642499810767
1815,0.3843174354765659,-0.0787725210089687,-0.3310802905184221
1816,0.3646975345415166,-0.0932070050277648,-0.3929903020570444
1817,0.3588207467419387,-0.0996277685541539,-0.4205291834945721
1818,0.3803995769435139,-0.081767856769234,-0.3439273913388322
1819,0.3999888696087737,-0.0591769071654428,-0.247034010957661
1820,0.4156909120107711,-0.0416186235035024,-0.1717259124697874
1821,0.4392286714788723,-0.0238248284473986,-0.0954076972980652
1822,0.4549001056110801,-0.0033138143763485,-0.0074352338449888
1823,0.4843146528787593,0.0263290721192314,0.1197041528202842
1824,0.5294006342786464,0.0659744246228754,0.2897444693121833
1825,0.5646919693459035,0.1084064181868876,0.4717367876890644
1826,0.615685346815158,0.1542715858510803,0.6684541109833019
1827,0.6607713282150449,0.2010814267812743,0.8692231712653119
1828,0.6960932715520916,0.2370844980381297,1.0236416149059224
1829,0.7215593520169293,0.260455151854529,1.123879174180944
1830,0.7313846066193487,0.2734401020213551,1.179572083855431
1831,0.7313846066193487,0.2696130720900704,1.163157817374138
1832,0.7098057764177734,0.2502870205384781,1.0802676999998642
1833,0.6803912291500942,0.2227053290276241,0.9619688513906492
1834,0.6450998940828371,0.1809109247716395,0.7827111760647765
1835,0.5803940117479008,0.1240752141618248,0.538940806782612
1836,0.5294006342786464,0.068023242987534,0.2985319236078398
1837,0.4803967943457073,0.0193355263482567,0.0897085881147411
1838,0.4352802046760309,-0.0239141088388162,-0.0957906240487297
1839,0.3999888696087737,-0.0595735646133496,-0.2487352887549701
1840,0.3705743223410945,-0.0919612811218353,-0.3876473482465994
1841,0.3392008458068894,-0.1190475482695787,-0.5038213042724181
1842,0.3352829872738374,-0.1265137870286011,-0.5358442658912248
1843,0.3352829872738374,-0.1233669367516927,-0.5223473139600006
1844,0.3352829872738374,-0.1292744424249823,-0.547684814345992
1845,0.3235294116746816,-0.1317419173993002,-0.5582679016203527
1846,0.3451082418762568,-0.1195090982656192,-0.5058009084995806
1847,0.3490261004093087,-0.1115858789266352,-0.4718179410404883
1848,0.3451082418762568,-0.1129930004912083,-0.4778531351066931
1849,0.3549028882088867,-0.1089060510081539,-0.460324064491894
1850,0.3588207467419387,-0.1016559066658846,-0.4292279394553439
1851,0.3588207467419387,-0.1001956093496459,-0.4229646727129766
1852,0.3646975345415166,-0.0997420857037416,-0.4210194937849033
1853,0.3646975345415166,-0.0941850933426559,-0.3971853573691601
1854,0.374522789143936,-0.08681066615561,-0.3655561788237936
1855,0.3803995769435139,-0.0835487629702303,-0.3515657609064118
1856,0.374522789143936,-0.0831633156393377,-0.3499125636967284
1857,0.3803995769435139,-0.084620450752934,-0.3561622676403269
1858,0.3646975345415166,-0.094538493475967,-0.398701103017051
1859,0.3549028882088867,-0.108879498817227,-0.460210181207634
1860,0.3490261004093087,-0.1101731763574629,-0.4657588098485309
1861,0.3705743223410945,-0.094473374167142,-0.3984218040025872
1862,0.3843174354765659,-0.0750041229230146,-0.3149174980916375
1863,0.3999888696087737,-0.0628553905390896,-0.2628111560090916
1864,0.4039067281418257,-0.0598312409007968,-0.2498404714486023
1865,0.3941120818091958,-0.0647693540656175,-0.271020213143212
1866,0.3843174354765659,-0.0810424910742051,-0.3408162722651969
1867,0.3549028882088867,-0.1062615682068773,-0.4489817843987829
1868,0.3392008458068894,-0.1222877323263224,-0.5177185680803276
1869,0.3451082418762568,-0.1187666438874419,-0.5026164954606384
1870,0.3549028882088867,-0.1074115498587254,-0.4539140963014745
1871,0.3588207467419387,-0.1027618590937292,-0.4339714084619164
1872,0.3549028882088867,-0.1078474023565785,-0.4557834830517099
1873,0.3549028882088867,-0.1111035253349212,-0.4697491094570508
1874,0.3451082418762568,-0.1117511158832197,-0.4725266481806558
1875,0.3352829872738374,-0.1295529533928132,-0.5488793577193188
1876,0.3352829872738374,-0.1377045823351338,-0.5838419820306884
1877,0.3294061994742595,-0.1115579512038705,-0.4716981580516154
1878,0.3392008458068894,-0.1425083157379116,-0.6044453641818741
1879,0.2588235293397452,-0.2090948054624679,-0.8900371693198771
1880,0.4294034168764529,0.0046432419068179,0.0266928614622506
1881,1.1470449103603302,0.6172874000605216,2.654345284020322
1882,1.503906727835743,1.1232476558514453,4.824426683072155
1883,1.503906727835743,0.9619961640190108,4.132813341925604
1884,0.7509738992846084,0.3387397109165875,1.4596444116855838
1885,0.4039067281418257,-0.0701853856094006,-0.2942497636371908
1886,0.3901942232761438,-0.0885002266954701,-0.3728027636259751
1887,0.3941120818091958,-0.0528690479489302,-0.2199793800910655
1888,0.3646975345415166,-0.1019330582191656,-0.4304166522516745
1889,0.3352829872738374,-0.1323910905068477,-0.5610522279964458
1890,0.3294061994742595,-0.1316526369637186,-0.5578849746802672
1891,0.3294061994742595,-0.1302040803185756,-0.5516720640907116
1892,0.3490261004093087,-0.1192145181015484,-0.5045374437762885
1893,0.3549028882088867,-0.1067660840152399,-0.4511456705118212
1894,0.3646975345415166,-0.0960184657777204,-0.4050487564668787
1895,0.3843174354765659,-0.0812046773467222,-0.3415118949137007
1896,0.3901942232761438,-0.0740529493389584,-0.3108378810102461
1897,0.3901942232761438,-0.0685878970132107,-0.2873980786518357
1898,0.4156909120107711,-0.0511407072700336,-0.2125664659034974
1899,0.4254855583434009,-0.0368760662775197,-0.1513849171005845
1900,0.4294034168764529,-0.0313065232879778,-0.1274969505963166
1901,0.4490233178115022,-0.0164452822513883,-0.0637565631425335
1902,0.4706021480130775,0.0090186914325789,0.0454593189451636
1903,0.4999860870109672,0.0375618273001988,0.1678818363425119
1904,0.5392258888810657,0.0753646941492402,0.3300196668163686
1905,0.5843118702809528,0.1233461598997069,0.5358138673145142
1906,0.6353052477502072,0.1711127948114136,0.740686650761024
1907,0.6764733706170423,0.2150908874009118,0.9293102424403002
1908,0.7156825642173513,0.2536684978547406,1.0947709755859394
1909,0.7411792529519786,0.2774155092345294,1.1966227457369267
1910,0.7450971114850305,0.2845549860700905,1.2272442139302997
1911,0.7450971114850305,0.2825415866647086,1.2186086728013796
1912,0.7313846066193487,0.2689317587249392,1.1602356402986174
1913,0.7000111300851435,0.2388962019163557,1.0314120767983934
1914,0.6607713282150449,0.1988936315170822,0.859839640141241
1915,0.615685346815158,0.1543527818636519,0.6688023635476923
1916,0.5705993654152709,0.1079567811947261,0.4698082787561049
1917,0.5254827757455944,0.0665644166837042,0.2922749660896257
