Sample,PPG,PPG_Filtered,PPG_Normalized
0,0.4359707736779858,-0.0310648655094296,-0.4727264481818509
1,0.4320642255267494,-0.0346455037460318,-0.5272811254266001
2,0.4281504430270847,-0.0381740044912009,-0.5810414347878786
3,0.4242438948758483,-0.0415801559989135,-0.6329376286704279
4,0.4213067494139927,-0.0448042249721729,-0.6820596093421987
5,0.4183768383005654,-0.0477989482501767,-0.7276872743206826
6,0.4174002012627563,-0.0505286133874237,-0.7692765080574216
7,0.4164235642249472,-0.0529658298352573,-0.8064099875941113
8,0.4154469271871381,-0.0550873613618808,-0.8387336852289035
9,0.414470290149329,-0.056870851368809,-0.8659069753710354
10,0.4125097817252826,-0.0582942197369271,-0.8875934448750741
11,0.4115331446874735,-0.0593388801179224,-0.9035099117588262
12,0.4095798706118552,-0.0599968434706676,-0.9135346548286398
13,0.407626596536237,-0.0602805003436581,-0.917856456734251
14,0.4066499594984279,-0.0602327301138436,-0.9171286285379262
15,0.4066499594984279,-0.0599342765564874,-0.912581384047356
16,0.4066499594984279,-0.0595052860097436,-0.9060452753225424
17,0.407626596536237,-0.0590986074634465,-0.899849112691867
18,0.4086032335740461,-0.0588837996651737,-0.8965762966936923
19,0.4086032335740461,-0.0590225366199589,-0.8986900957680741
20,0.4105565076496644,-0.0596379496156055,-0.908066540728787
21,0.4115331446874735,-0.0607820886015533,-0.925498665667705
22,0.4115331446874735,-0.0624068341229391,-0.9502533215885348
23,0.4105565076496644,-0.0643439569880442,-0.9797673650931128
24,0.4086032335740461,-0.0662993889312066,-1.0095603660846142
25,0.4066499594984279,-0.0678651018796707,-1.0334156005197015
26,0.4046894510743815,-0.068549510221815,-1.0438432599876764
27,0.4046894510743815,-0.0678244119083116,-1.0327956472856938
28,0.4056660881121906,-0.0651836443076319,-0.9925608582302708
29,0.4086032335740461,-0.0602062942167303,-0.9167258506700174
30,0.4125097817252826,-0.0526158318947745,-0.801077411830332
31,0.4203301123761837,-0.0423262271755829,-0.6443047843436112
32,0.4320642255267494,-0.0294671947046364,-0.4483843031955533
33,0.4525880720175971,-0.0143833422967992,-0.2185664200860138
34,0.4740957898946821,0.0023940002322621,0.0370535130703972
35,0.4956035077717671,0.0201987769789756,0.3083274549343218
36,0.5180806283382331,0.0382982111490401,0.584090803313644
37,0.5347051610262725,0.0559662276506938,0.8532810632929028
38,0.5503385879796465,0.0725511508766813,1.1059692920208843
39,0.5640259752058304,0.0875281927448707,1.3341598075686136
40,0.5757600883563961,0.1005305013645228,1.532263247042258
41,0.5845570560451063,0.1113565123138234,1.6972085707976303
42,0.5923773866960075,0.1199552201676951,1.828218659137358
43,0.5962839348472438,0.1263942007097677,1.9263230980798771
44,0.5992210803090994,0.1308174213296914,1.9937153777119136
45,0.6011743543847177,0.1334008784471684,2.0330769830756967
46,0.6021509914225267,0.1343138072062327,2.046986384279395
47,0.6031276284603359,0.1336916751891741,2.0375075681713306
48,0.6031276284603359,0.1316246551895503,2.006014409274349
49,0.6011743543847177,0.1281622328108773,1.9532608712535
50,0.598237208922862,0.123331614660433,1.8796614745324869
51,0.5933540237338165,0.117165197034616,1.785709809744365
52,0.5855336930829155,0.109730902483107,1.6724407462422015
53,0.5777133624320144,0.1011588382961377,1.5418366013551292
54,0.5718463058567315,0.0916584160184068,1.397087973651745
55,0.5620727011302122,0.0815216203256342,1.2426435476099942
56,0.5474086768662192,0.0711103746193425,1.0840175955614275
57,0.5337212896400352,0.0608287816768119,0.927367035667414
58,0.5210177738000886,0.0510840729322622,0.7788964543703021
59,0.5092836606495229,0.0422426788966917,0.644188794413593
60,0.5024472013848591,0.0345891361800866,0.5275792613937177
61,0.4975567818473854,0.0282951149506082,0.4316834254961407
62,0.4956035077717671,0.0234037848379874,0.3571590200804264
63,0.494626870733958,0.0198316191674036,0.3027334310244375
64,0.4936429993477207,0.0173863979672957,0.2654779909187396
65,0.4936429993477207,0.0157974049362717,0.2412680606706812
66,0.4936429993477207,0.0147521504241439,0.2253425415928696
67,0.4916897252721025,0.0139335717680319,0.2128706604832026
68,0.4887598141586752,0.0130524522495099,0.199445905517554
69,0.4868065400830569,0.0118714368778187,0.1814519312128946
70,0.4838693946212014,0.0102190347165818,0.1562758981628905
71,0.4809394835077741,0.007993878856872,0.1223733780744818
72,0.4780023380459186,0.0051608965177203,0.0792100013410768
73,0.4750724269324912,0.001741776560318,0.0271162198944017
74,0.4711658787812548,-0.0021977488464728,-0.0329064695993312
75,0.4682287333193992,-0.0065616124870469,-0.0993943850826695
76,0.4633455481303537,-0.011236476993418,-0.1706207161040412
77,0.4584551285928799,-0.0161031229881766,-0.2447690337962659
78,0.4535647090554062,-0.0210456187504433,-0.3200730000941482
79,0.4486815238663607,-0.0259580626315885,-0.3949190953179795
80,0.4437911043288869,-0.0307488971254552,-0.4679123474354918
81,0.4389079191398414,-0.0353429348041873,-0.5379071992614822
82,0.4349941366401767,-0.039681348695167,-0.6040073618406344
83,0.4310875884889403,-0.0437199774689671,-0.6655399922565731
84,0.4261971689514665,-0.0474263791417455,-0.7220108037814204
85,0.4232672578380392,-0.0507761271678079,-0.7730476330664929
86,0.4203301123761837,-0.0537488853301676,-0.8183406370947703
87,0.4183768383005654,-0.0563248512394069,-0.8575881062569669
88,0.4164235642249472,-0.0584822289780101,-0.8904579575090135
89,0.414470290149329,-0.0601964236672677,-0.916575462776972
90,0.414470290149329,-0.0614415611676995,-0.9355464031436956
91,0.4134864187630917,-0.0621946764034869,-0.9470208822453524
92,0.4125097817252826,-0.0624424818943464,-0.9507964517611784
93,0.4125097817252826,-0.0621900524571603,-0.946950431704757
94,0.4125097817252826,-0.0614701186835859,-0.9359815060385284
95,0.4125097817252826,-0.0603510907376231,-0.9189319734172752
96,0.4125097817252826,-0.0589416003252833,-0.8974569487306892
97,0.4134864187630917,-0.0573893915331664,-0.8738074638972937
98,0.4154469271871381,-0.0558729071372032,-0.8507022766927417
99,0.4174002012627563,-0.0545849306812883,-0.8310786411260416
100,0.4193534753383746,-0.0537090472453053,-0.8177336632208125
101,0.4203301123761837,-0.0533912182198734,-0.812891213703236
102,0.4213067494139927,-0.0537100974526875,-0.8177496642019199
103,0.4213067494139927,-0.0546505605447904,-0.8320785790657012
104,0.4203301123761837,-0.0560850931956247,-0.8539351478090389
105,0.4193534753383746,-0.0577671124919801,-0.87956242813412
106,0.4164235642249472,-0.0593390010307063,-0.9035117539884692
107,0.414470290149329,-0.0603557524857837,-0.9190029999073848
108,0.4134864187630917,-0.0603229141311801,-0.9185026740664956
109,0.4134864187630917,-0.0587453176345533,-0.8944663816490876
110,0.4164235642249472,-0.0551812810300695,-0.8401646472100922
111,0.4213067494139927,-0.0492958294254171,-0.7504937864542492
112,0.4281504430270847,-0.0409061778571079,-0.6226688839476682
113,0.4369474107157949,-0.0300132894511007,-0.4567046138971124
114,0.4506347979419788,-0.0168147423954597,-0.255611281608005
115,0.4682287333193992,-0.0016963475619804,-0.0252671093964578
116,0.4868065400830569,0.0147972163346175,0.226029166724528
117,0.5053771124982864,0.0320094387476918,0.4882749386685728
118,0.523947684913516,0.0492307061080864,0.7506585196145744
119,0.5415416202909363,0.0657610183119953,1.002514693695692
120,0.5581589186305476,0.0809685049457284,1.234216270394047
121,0.5718463058567315,0.0943363388964608,1.4378888612714893
122,0.5816199105832508,0.1054925585305039,1.6078652512863325
123,0.5874869671585337,0.1142201059067508,1.7408383412182613
124,0.590416878271961,0.1204476743915771,1.8357217017421843
125,0.590416878271961,0.1242251548291925,1.893275470778628
126,0.5914007496581983,0.1256898919751833,1.915592235826568
127,0.590416878271961,0.1250310347207167,1.905553873251885
128,0.5894402412341518,0.1224587418722892,1.8663623669191756
129,0.5865103301207246,0.1181830923992581,1.801218484292753
130,0.5826037819694881,0.1124048052090852,1.7131803827428775
131,0.5777133624320144,0.1053169896389249,1.6051902800713125
132,0.5708696688189224,0.0971147362599809,1.4802205802022284
133,0.5630493381680214,0.0880078515467591,1.3414678988628228
134,0.5522990964036929,0.0782316691439231,1.1925177842657622
135,0.5405649832531272,0.0680516445682297,1.0374147220816363
136,0.5288381044509897,0.0577591299945109,0.8805977599919563
137,0.517103991300424,0.0476578928408974,0.7266951045784946
138,0.5073303865739046,0.0380430617714504,0.5802033421897262
139,0.4975567818473854,0.0291758222348033,0.445101899651172
140,0.487783177120866,0.0212581130698142,0.324467521232741
141,0.479962846469965,0.0144117559875285,0.2201562850099976
142,0.4740957898946821,0.0086659166563675,0.1326125597022072
143,0.4701892417434457,0.0039555906134165,0.0608459359858227
144,0.4682287333193992,0.0001320304955931,0.0025900960013588
145,0.4672520962815901,-0.0030160561554828,-0.0453742164590147
146,0.466275459243781,-0.0057336835697176,-0.0867800432022801
147,0.4643221851681628,-0.0082676744316137,-0.12538797968655
148,0.4604084026684982,-0.0108366416467953,-0.1645288166032576
149,0.4565018545172618,-0.0136072550813261,-0.2067419394330651
150,0.4525880720175971,-0.0166797480247516,-0.2535545046209986
151,0.4477048868285516,-0.0200837730740923,-0.3054182997403978
152,0.4437911043288869,-0.0237839264796265,-0.3617939125380009
153,0.4389079191398414,-0.0276928560196709,-0.4213504427816005
154,0.4330408625645585,-0.0316890088200685,-0.4822359083999503
155,0.4301109514511312,-0.0356358031464617,-0.5423693473010859
156,0.4271738059892756,-0.0393993060437859,-0.5997101542484063
157,0.4252205319136574,-0.0428622844004797,-0.652472163161727
158,0.4222906208002301,-0.0459335618169689,-0.6992662085564532
159,0.4193534753383746,-0.0485526411042038,-0.739170554025627
160,0.4174002012627563,-0.0506902698174694,-0.7717395087246017
161,0.4154469271871381,-0.0523459461788648,-0.7969654275550389
162,0.4134864187630917,-0.053543369255773,-0.8152093899912247
163,0.4125097817252826,-0.054324672668712,-0.8271133447352135
164,0.4115331446874735,-0.0547440685276282,-0.8335032686004821
165,0.4115331446874735,-0.0548613605158807,-0.8352903317271334
166,0.4115331446874735,-0.0547357192107086,-0.8333760582375063
167,0.4125097817252826,-0.0544201529748469,-0.8285680846279991
168,0.4134864187630917,-0.0539572031916013,-0.8215145722828211
169,0.4134864187630917,-0.0533764560796696,-0.8126662974338326
170,0.414470290149329,-0.0526944055708908,-0.8022745619631323
171,0.4154469271871381,-0.0519169782157996,-0.7904296629156135
172,0.4164235642249472,-0.051044664809854,-0.7771390780608896
173,0.4164235642249472,-0.0500797525045165,-0.7624376544853187
174,0.4174002012627563,-0.0490346705691896,-0.7465147647911675
175,0.4174002012627563,-0.0479400187796507,-0.7298366277866454
176,0.4183768383005654,-0.0468505414732526,-0.7132373293128548
177,0.4183768383005654,-0.045847254512586,-0.6979512287055589
178,0.4183768383005654,-0.0450342017364657,-0.6855635400162147
179,0.4193534753383746,-0.0445289353545959,-0.6778652911108223
180,0.4203301123761837,-0.0444467567982744,-0.676613216949649
181,0.4203301123761837,-0.0448799276694482,-0.6832130171827879
182,0.4213067494139927,-0.0458742729232835,-0.6983628817623242
183,0.4203301123761837,-0.0474065845178633,-0.7217092124879924
184,0.4183768383005654,-0.0493667368672704,-0.7515741336853698
185,0.4164235642249472,-0.051548282514199,-0.7848122076818687
186,0.4154469271871381,-0.0536504891258286,-0.8168414705174407
187,0.4134864187630917,-0.0552934247080081,-0.8418732705757369
188,0.4115331446874735,-0.0560459734411429,-0.8533391184314177
189,0.4105565076496644,-0.0554647506165019,-0.8444835956138821
190,0.4115331446874735,-0.0531400085276376,-0.8090637777057694
191,0.414470290149329,-0.0487431019837554,-0.7420724198733059
192,0.4193534753383746,-0.0420692500018089,-0.6403894748797285
193,0.4271738059892756,-0.0330694298736712,-0.503268031743585
194,0.4389079191398414,-0.0218663615775545,-0.3325778545573244
195,0.4535647090554062,-0.0087516222393569,-0.1327614183614907
196,0.4721425158190639,0.0058362725047085,0.0895000436615651
197,0.4897364511964843,0.0213499394376082,0.3258665896463971
198,0.5083070236117138,0.0371818259958578,0.5670815363371275
199,0.523947684913516,0.0527164097098591,0.8037667708256827
200,0.5366584351018908,0.0673786144072689,1.0271604208143743
201,0.5483853139040282,0.0806724350865709,1.2297053439778771
202,0.5591427900167849,0.092206057649631,1.4054318527210738
203,0.5679397577054951,0.1017024210035849,1.5501186385789594
204,0.5737995799323498,0.1089965886321911,1.661252725424136
205,0.5777133624320144,0.1140231057966186,1.7378368435200071
206,0.5796666365076326,0.1167975748212657,1.7801087101995094
207,0.5796666365076326,0.1173969408631878,1.7892406634457978
208,0.5786899994698235,0.1159424424003398,1.7670798951831668
209,0.5767367253942053,0.1125879261490678,1.7159704171214931
210,0.5737995799323498,0.1075144687039806,1.638671115951557
211,0.5698930317811133,0.1009303357207903,1.5383551314539698
212,0.5640259752058304,0.0930736840749988,1.4186510266440648
213,0.5552290075171202,0.0842145086369339,1.2836724488760771
214,0.5444787657527919,0.0746524442724752,1.137984641081347
215,0.5327446526022261,0.0647081648500474,0.9864733968633458
216,0.5210177738000886,0.0547079519279876,0.8341099487034882
217,0.5092836606495229,0.0449629851349885,0.6856354357749352
218,0.4995100559230035,0.0357464649634097,0.5452123463546167
219,0.4916897252721025,0.0272724186356093,0.4161016035701415
220,0.4858226686968196,0.0196798285160256,0.3004207455623744
221,0.479962846469965,0.0130247101200435,0.1990232258668564
222,0.4740957898946821,0.0072813213256274,0.1115168369869206
223,0.4692053703572084,0.0023522265271924,0.0364170480474583
224,0.4652988222059719,-0.001914251810528,-0.0285871029742102
225,0.4623689110925446,-0.0057015187958597,-0.0862899800513785
226,0.4604084026684982,-0.0092000186914935,-0.1395931958568949
227,0.4574784915550708,-0.0125835348692757,-0.191144517390694
228,0.4545485804416435,-0.0159895413863426,-0.2430385021928064
229,0.4506347979419788,-0.0195061052087817,-0.296616940355768
230,0.4457443784045051,-0.0231668156884381,-0.3523915999297654
231,0.4408611932154596,-0.0269538941800756,-0.4100916051131621
232,0.4369474107157949,-0.0308082860616898,-0.4688171984799419
233,0.4320642255267494,-0.0346444607186473,-0.5272652338400843
234,0.4281504430270847,-0.0383670629645421,-0.5839828776275462
235,0.4252205319136574,-0.0418865521148697,-0.6376058861459155
236,0.4232672578380392,-0.0451314855635587,-0.6870457583911235
237,0.4213067494139927,-0.0480560084769974,-0.7316038491824796
238,0.4193534753383746,-0.0506421711255197,-0.771006676072482
239,0.4174002012627563,-0.0528976437954115,-0.805371103699514
240,0.4154469271871381,-0.0548500338894074,-0.8351177590150382
241,0.4134864187630917,-0.0565392676609667,-0.8608549592315554
242,0.4125097817252826,-0.0580094439120012,-0.8832545945949402
243,0.4105565076496644,-0.0593013209984882,-0.902937660248639
244,0.4095798706118552,-0.0604462763337561,-0.9203822231024578
245,0.4086032335740461,-0.0614622587538611,-0.9358617519888396
246,0.407626596536237,-0.0623519886408766,-0.9494176947045714
247,0.407626596536237,-0.0631034754686589,-0.9608673633486304
248,0.407626596536237,-0.0636928129935055,-0.9698465219040996
249,0.407626596536237,-0.0640891367888477,-0.9758849193379114
250,0.407626596536237,-0.0642615189810336,-0.9785113379359456
251,0.4086032335740461,-0.064187368033894,-0.977381572592091
252,0.4086032335740461,-0.0638615752059968,-0.972417786417632
253,0.407626596536237,-0.0633052323443735,-0.963941335224372
254,0.407626596536237,-0.0625723166404826,-0.9527746166029124
255,0.407626596536237,-0.0617524438257352,-0.9402830176658656
256,0.4086032335740461,-0.0609678323911137,-0.9283286618360138
257,0.4086032335740461,-0.0603631533937056,-0.9191157602915168
258,0.4105565076496644,-0.0600879714232702,-0.9149230821741868
259,0.4115331446874735,-0.0602728627950469,-0.9177400908877474
260,0.4115331446874735,-0.0610017725523578,-0.9288457748253628
261,0.4125097817252826,-0.0622844377739206,-0.9483884883170852
262,0.4125097817252826,-0.0640334686484712,-0.9750367584150876
263,0.4105565076496644,-0.0660507220246889,-1.0057716720222405
264,0.4086032335740461,-0.0680268107704267,-1.0358794004793346
265,0.4066499594984279,-0.069555992303966,-1.059178041531113
266,0.4046894510743815,-0.070166481444422,-1.068479466533658
267,0.4046894510743815,-0.0693638036500963,-1.056249851278664
268,0.4056660881121906,-0.06668256149369,-1.015398391066206
269,0.4086032335740461,-0.0617403020070237,-0.940098024668193
270,0.414470290149329,-0.0542863378458046,-0.8265292745910783
271,0.4242438948758483,-0.0442385960028293,-0.6734416748222057
272,0.437924047753604,-0.0317029331188456,-0.4824480593002784
273,0.4565018545172618,-0.0169717647502191,-0.258003677409553
274,0.4750724269324912,-0.0005019354508351,-0.0070690220960818
275,0.4926663623099116,0.0171251138510946,0.2614970607921438
276,0.5122208061113784,0.0352553204276779,0.5377292581851744
277,0.5307913785266078,0.0532191223443886,0.8114261107844828
278,0.5493619509418374,0.0703864536540369,1.0729879209606137
279,0.5650026122436396,0.0862130522733409,1.3141223005056553
280,0.5786899994698235,0.1002730425748441,1.528340599668623
281,0.5894402412341518,0.1122748970707635,1.7112010996963076
282,0.598237208922862,0.1220603846225796,1.860292987733124
283,0.604104265498145,0.1295886158841845,1.9749932728673223
284,0.6080180479978096,0.1349094082577614,2.056060974055215
285,0.6099713220734279,0.1381315799706886,2.105154048029846
286,0.6099713220734279,0.1393922235442412,2.124361239243078
287,0.6099713220734279,0.1388324085671281,2.115831886827359
288,0.6089946850356187,0.1365831736431822,2.0815624976248555
289,0.6089946850356187,0.132763315266039,2.023363057436938
290,0.6060575395737632,0.1274877964713532,1.9429851454209504
291,0.6011743543847177,0.1208831749310952,1.84235699684976
292,0.5943306607716257,0.113104895086246,1.7238469663983842
293,0.5845570560451063,0.1043509931459203,1.59047233779032
294,0.5747834513185871,0.0948677509889651,1.4459854667576777
295,0.5630493381680214,0.0849447867695819,1.294798981408254
296,0.5513224593658839,0.0748994797413388,1.1417484785263294
297,0.539588346215318,0.0650529621294639,0.9917267352489864
298,0.5288381044509897,0.0557017140894241,0.849250929275337
299,0.5210177738000886,0.0470897363938523,0.7180386613566623
300,0.5131974431491875,0.0393861934442072,0.6006673237658097
301,0.5063537495360956,0.0326723867458531,0.4983756278976702
302,0.5024472013848591,0.0269402087195818,0.4110400465099724
303,0.4985334188851945,0.0221021986996061,0.3373280271139287
304,0.4965801448095762,0.0180113248741197,0.2749993900243065
305,0.494626870733958,0.0144869706177316,0.2213022566507147
306,0.4916897252721025,0.0113426095189215,0.173394706780692
307,0.4887598141586752,0.0084105220082748,0.1287213616319003
308,0.4858226686968196,0.0055596760518612,0.0852858144613412
309,0.4809394835077741,0.0027043966321757,0.0417827189538956
310,0.4760490639703003,-0.0001966428843882,-0.0024175783234385
311,0.4721425158190639,-0.0031496624588709,-0.0474098448240066
312,0.4682287333193992,-0.0061402963568173,-0.092975203924482
313,0.4652988222059719,-0.0091496542167473,-0.1388258416918487
314,0.4623689110925446,-0.0121682481233127,-0.1848172000542371
315,0.4604084026684982,-0.0152049283661873,-0.2310841222057293
316,0.4584551285928799,-0.0182892838441234,-0.278077425211551
317,0.4565018545172618,-0.0214674530573861,-0.3265000762033127
318,0.4535647090554062,-0.0247926372245637,-0.3771626500331296
319,0.4496581609041697,-0.0283125436676404,-0.4307920164323401
320,0.4457443784045051,-0.032056375082778,-0.4878331082756195
321,0.4418378302532686,-0.0360238428064117,-0.5482815274790039
322,0.437924047753604,-0.0401781691523234,-0.6115769284647332
323,0.4330408625645585,-0.0444443266814181,-0.6765761916396338
324,0.4291270800648938,-0.0487129552460175,-0.7416131035619116
325,0.4242438948758483,-0.052849564072487,-0.8046385600598492
326,0.4183768383005654,-0.056707828636203,-0.863423157690164
327,0.414470290149329,-0.0601451284004854,-0.9157939270454688
328,0.4115331446874735,-0.063038083461453,-0.959871049392354
329,0.4095798706118552,-0.0652958802260786,-0.9942708869741792
330,0.4086032335740461,-0.0668696732045229,-1.0182492289109384
331,0.4095798706118552,-0.0677571863035429,-1.0317713965995312
332,0.4095798706118552,-0.0680025607939916,-1.0355099273434878
333,0.4095798706118552,-0.0676922348598748,-1.0307817950783076
334,0.4105565076496644,-0.0669479918671627,-1.0194424936532065
335,0.4105565076496644,-0.0659182303112726,-1.0037530255728049
336,0.4105565076496644,-0.0647680987898061,-0.9862295982404314
337,0.4105565076496644,-0.0636686095694511,-0.9694777580412752
338,0.4105565076496644,-0.0627844154117519,-0.9560061578103772
339,0.4105565076496644,-0.0622597964247815,-0.9480130522187336
340,0.4105565076496644,-0.0622026708350377,-0.9471426855676066
341,0.4115331446874735,-0.0626671102378205,-0.9542188937864527
342,0.4105565076496644,-0.0636357707821518,-0.9689774256078256
343,0.4105565076496644,-0.0650046094913646,-0.989833080115969
344,0.4105565076496644,-0.06657296279903,-1.0137285431177303
345,0.4095798706118552,-0.0680422828092481,-1.036115132778563
346,0.4095798706118552,-0.069026396532498,-1.0511091095493
347,0.4095798706118552,-0.0690750081480958,-1.05184975711659
348,0.4095798706118552,-0.0677103544553164,-1.0310578656042313
349,0.4105565076496644,-0.06447464316727,-0.9817585023867754
350,0.4125097817252826,-0.0589834974389439,-0.8980952940094374
351,0.4164235642249472,-0.050978579230538,-0.7761321968257895
352,0.4252205319136574,-0.0403714270095844,-0.6145214091218717
353,0.437924047753604,-0.0272708179755426,-0.41492026252852
354,0.4555252174794526,-0.0119878910320873,-0.1820692757316894
355,0.4760490639703003,0.0049833501308804,0.076504900967906
356,0.4965801448095762,0.023008352937139,0.3511342115693234
357,0.5180806283382331,0.041371316286879,0.6309126959081535
358,0.5376350721396999,0.0593426792652338,0.9047247489969736
359,0.5552290075171202,0.0762447371645281,1.162244848079384
360,0.5698930317811133,0.091505961461429,1.394765172910415
361,0.5806432735454417,0.1046969542158433,1.5957434077118675
362,0.5865103301207246,0.1155445372471247,1.7610174041485318
363,0.5923773866960075,0.123924527987513,1.888695114083757
364,0.597260571885053,0.129837430127113,1.9787842117502576
365,0.5992210803090994,0.1333737973431036,2.032664374821508
366,0.6001977173469085,0.1346769877955731,2.052519811150193
367,0.6001977173469085,0.1339104442692024,2.040840738339172
368,0.598237208922862,0.1312348568426043,2.0000754337054705
369,0.5943306607716257,0.1267980594198408,1.932476297628298
370,0.5894402412341518,0.1207377614548167,1.840141474157655
371,0.5845570560451063,0.1131946642616307,1.72521469138651
372,0.5767367253942053,0.104331519909978,1.590175643170103
373,0.566963120667686,0.0943525490593802,1.4381358396445385
374,0.5562056445549294,0.0835175500037612,1.2730535729178738
375,0.545455402790601,0.0721460478706252,1.0997971343534736
376,0.531768015564417,0.0606087725617041,0.9240149722997952
377,0.517103991300424,0.0493062785546994,0.7518099429534149
378,0.5034238384226682,0.0386372029820482,0.5892556897993316
379,0.4916897252721025,0.0289609845002838,0.4418286275437316
380,0.4819161205455832,0.0205612785179884,0.3138505357804714
381,0.4760490639703003,0.0136164031854263,0.2080382734860055
382,0.4721425158190639,0.0081818851744283,0.1252378461655087
383,0.4701892417434457,0.0041878806252035,0.0643851113458681
384,0.4692053703572084,0.0014515251072018,0.0226939428314164
385,0.4672520962815901,-0.0002982176587851,-0.003965173659037
386,0.466275459243781,-0.0013873661267425,-0.0205594619436343
387,0.4652988222059719,-0.0021602900350312,-0.0323357463837663
388,0.4633455481303537,-0.0029443633923885,-0.0442819040574399
389,0.4613850397063073,-0.0040197868412596,-0.060667077671145
390,0.459431765630689,-0.0055972574027674,-0.0847014513385097
391,0.4555252174794526,-0.0078048558469353,-0.1183364662854191
392,0.4525880720175971,-0.0106843253035443,-0.1622081216890895
393,0.4496581609041697,-0.014195969219392,-0.2157116000548214
394,0.4457443784045051,-0.0182307588019356,-0.2771857364744279
395,0.4408611932154596,-0.0226278688492494,-0.3441801948893283
396,0.4349941366401767,-0.0271956410117141,-0.4137748647734551
397,0.4301109514511312,-0.0317338134150279,-0.4829185521231015
398,0.4252205319136574,-0.036054778540496,-0.5487528649548332
399,0.4213067494139927,-0.0400017444458827,-0.6088889180370154
400,0.4174002012627563,-0.0434620519590782,-0.6616102339242907
401,0.414470290149329,-0.0463745164404656,-0.7059846021988307
402,0.4125097817252826,-0.0487304202782587,-0.7418792011495562
403,0.4105565076496644,-0.0505685698370339,-0.769885285339094
404,0.4105565076496644,-0.0519655408823663,-0.7911695646944663
405,0.4086032335740461,-0.0530227602521031,-0.8072773805869814
406,0.4066499594984279,-0.0538523092343182,-0.8199164058090322
407,0.4056660881121906,-0.0545632467975549,-0.8307482650309657
408,0.4046894510743815,-0.0552499123546818,-0.8412103154724792
409,0.4037128140365724,-0.0559832367932622,-0.8523832615840091
410,0.4027361769987633,-0.0568056993654625,-0.8649143181184586
411,0.4017595399609542,-0.0577302497538445,-0.8790007867036097
412,0.4017595399609542,-0.0587432337861294,-0.8944346320919749
413,0.400782902923145,-0.0598110660528761,-0.9107041462999156
414,0.3988296288475269,-0.0608900242076569,-0.9271431747649956
415,0.3968691204234804,-0.061938049094695,-0.9431109033314768
416,0.3939392093100531,-0.0629268496671481,-0.9581762890323208
417,0.3919859352344348,-0.0638520872438753,-0.9722732276331232
418,0.3900326611588167,-0.0647391896226827,-0.9857891375801752
419,0.3890487897725793,-0.0656426308018861,-0.9995539858234952
420,0.3880721527347702,-0.0666373824895209,-1.0147100428366949
421,0.3880721527347702,-0.0678026045459031,-1.032463389867004
422,0.3880721527347702,-0.0691992537991257,-1.0537427663912249
423,0.3880721527347702,-0.0708448279605951,-1.0788147678974287
424,0.3870955156969611,-0.0726895725953586,-1.1069213347993132
425,0.3851422416213429,-0.0745988617250563,-1.1360113029432068
426,0.3831889675457247,-0.0763459520616623,-1.1626300069654836
427,0.3812284591216783,-0.0776179475470841,-1.1820101561396192
428,0.37927518504606,-0.0780358314148993,-1.188377043277617
429,0.3782985480082509,-0.077187180312861,-1.1754469777681134
430,0.3802518220838691,-0.0746680526228398,-1.1370654968738498
431,0.3822123305079156,-0.0701288968480206,-1.067906826855879
432,0.3880721527347702,-0.0633184331551118,-0.9641424630461762
433,0.3968691204234804,-0.054119482719249,-0.8239870664777811
434,0.4086032335740461,-0.0425716906419439,-0.6480446707263833
435,0.4252205319136574,-0.0288779007810738,-0.4394058089501372
436,0.4408611932154596,-0.0133933055457493,-0.2034821999428416
437,0.4574784915550708,0.0034010391353427,0.0523967783488805
438,0.4770257010081094,0.0209366434904232,0.319569604160749
439,0.4956035077717671,0.0386028475354596,0.5887322495139989
440,0.5131974431491875,0.0557931793436842,0.850644495755821
441,0.5298147414887988,0.0719472503922275,1.0967682519156463
442,0.5435021287149827,0.0865836092460682,1.3197681141042703
443,0.5542523704793112,0.0993206421343936,1.5138298071218064
444,0.5640259752058304,0.109884701789153,1.6747840356077777
445,0.5708696688189224,0.1181067814303151,1.8000558088126213
446,0.5737995799323498,0.1239108263668198,1.8884863559112592
447,0.5757600883563961,0.127297870035837,1.940091422373502
448,0.5767367253942053,0.1283303892080482,1.955822905552448
449,0.5767367253942053,0.1271205035227626,1.937389062560693
450,0.5767367253942053,0.1238239854152329,1.8871632454006744
451,0.5737995799323498,0.1186398586450567,1.808177784135198
452,0.5698930317811133,0.1118132488460657,1.7041674179237254
453,0.5620727011302122,0.1036377578744553,1.5796054706389298
454,0.5513224593658839,0.094453421628799,1.43967273617076
455,0.539588346215318,0.0846373655520844,1.290115105464763
456,0.5268848303753715,0.0745862651330416,1.136976334362386
457,0.5151507172248058,0.064692020627414,0.98622742315784
458,0.5044004754604773,0.0553139733252659,0.8433433030798027
459,0.4965801448095762,0.0467520124095476,0.7128930918396933
460,0.4897364511964843,0.0392248495459556,0.5982090848394226
461,0.4848460316590105,0.0328567043801262,0.5011838951349176
462,0.479962846469965,0.0276740246225003,0.4222204805821873
463,0.4770257010081094,0.0236121213387393,0.3603332392575097
464,0.4750724269324912,0.020530114080836,0.3133757137800291
465,0.473119152856873,0.0182315735198693,0.2783551028856719
466,0.4701892417434457,0.0164878098333862,0.2517870837725563
467,0.4692053703572084,0.0150608744630515,0.230046267349952
468,0.4672520962815901,0.0137239071254143,0.2096762057095494
469,0.4652988222059719,0.0122772671862929,0.1876351700747899
470,0.4633455481303537,0.0105597328435047,0.1614667817774852
471,0.4604084026684982,0.0084547896068175,0.129395823666688
472,0.4584551285928799,0.0058925731678901,0.0903578417147558
473,0.4555252174794526,0.0028483293063354,0.0439756801146989
474,0.4525880720175971,-0.0006616934282713,-0.0095030979005608
475,0.4486815238663607,-0.0045861236301104,-0.0692957965435943
476,0.444767741366696,-0.0088455096880592,-0.1341918894459271
477,0.4398845561776505,-0.0133400714842537,-0.2026711246955205
478,0.4359707736779858,-0.0179577993410549,-0.2730269205580291
479,0.4320642255267494,-0.0225825770513522,-0.3434901281322741
480,0.4271738059892756,-0.0271020068268461,-0.4123482524219665
481,0.4222906208002301,-0.0314145675120855,-0.4780545150308601
482,0.4174002012627563,-0.0354356350002451,-0.5393195813403983
483,0.414470290149329,-0.039101789493479,-0.595177186016361
484,0.4105565076496644,-0.042372844301795,-0.6450150438299176
485,0.407626596536237,-0.0452312465438004,-0.6885657187219584
486,0.4066499594984279,-0.0476789186872574,-0.7258585014505406
487,0.4056660881121906,-0.049732149750804,-0.7571415718360515
488,0.4046894510743815,-0.0514156761822243,-0.7827918149017383
489,0.4046894510743815,-0.0527574418465307,-0.8032349839451948
490,0.4037128140365724,-0.0537855205613399,-0.8188988122245451
491,0.4017595399609542,-0.0545282347663698,-0.8302148210093214
492,0.3998062658853359,-0.0550176646944613,-0.8376717853817652
493,0.3998062658853359,-0.0552957194063704,-0.841908232646814
494,0.3988296288475269,-0.0554210410042472,-0.8438176350695655
495,0.3988296288475269,-0.0554745142692168,-0.844632354825898
496,0.3988296288475269,-0.0555611776743216,-0.8459527602346584
497,0.3988296288475269,-0.0558068373057464,-0.8496956353923457
498,0.3988296288475269,-0.0563485494429659,-0.857949172570013
499,0.3998062658853359,-0.0573192082535576,-0.8727381500169087
500,0.3978529918097178,-0.0588275762209786,-0.8957196751505558
501,0.3958924833856713,-0.0609360349335477,-0.9278441951236316
502,0.3939392093100531,-0.0636389568957212,-0.9690259692991896
503,0.3919859352344348,-0.0668448488139934,-1.017871003990227
504,0.3890487897725793,-0.0703653204595311,-1.0715089818256678
505,0.386118878659152,-0.0739135071990691,-1.1255692273988929
506,0.3831889675457247,-0.0771137886316043,-1.1743287806147455
507,0.3812284591216783,-0.079523493877806,-1.2110430989219363
508,0.37927518504606,-0.0806658467897865,-1.2284480112014395
509,0.3802518220838691,-0.0800718391865582,-1.2193976992364426
510,0.3822123305079156,-0.0773272216490387,-1.1775806504240105
511,0.3851422416213429,-0.0721195730106033,-1.0982368094937145
512,0.3910092981966258,-0.0642796541371671,-0.9787876455448888
513,0.400782902923145,-0.0538111844325684,-0.819289827490318
514,0.4134864187630917,-0.0409040186025847,-0.6226359855016877
515,0.4301109514511312,-0.0259275601638815,-0.3944543590975165
516,0.4496581609041697,-0.0094039903745832,-0.1427009125830019
517,0.4711658787812548,0.0080359171633091,0.1230138745692542
518,0.4916897252721025,0.0257086343031716,0.3922757535681905
519,0.5102675320357603,0.0429375214868431,0.6547754302971406
520,0.5268848303753715,0.0591078044757902,0.9011461919118036
521,0.5405649832531272,0.0737094449628554,1.1236170843557207
522,0.5513224593658839,0.0863629163799738,1.316405633092666
523,0.5591427900167849,0.0968261958809333,1.475824373098671
524,0.5650026122436396,0.1049847122641134,1.6001276952077337
525,0.5689163947433042,0.110828841774824,1.6891689716969986
526,0.5728229428945406,0.1144252590517852,1.7439640587226684
527,0.5747834513185871,0.1158887316381487,1.7662615569143207
528,0.5757600883563961,0.1153598334397809,1.7582032531704983
529,0.5757600883563961,0.1129919019776413,1.722125401089776
530,0.5747834513185871,0.1089479293846512,1.6605113521356043
531,0.5708696688189224,0.1034055582669265,1.5760676726800074
532,0.5650026122436396,0.096566482820572,1.4718673796109116
533,0.5581589186305476,0.0886656970093119,1.3514908457552592
534,0.5483853139040282,0.079976292332314,1.2190988987674851
535,0.5376350721396999,0.0708067232871826,1.0793911576678743
536,0.5288381044509897,0.0614892670687845,0.9374302045783648
537,0.5200411367622795,0.0523603583974308,0.7983419657634077
538,0.5092836606495229,0.0437351861594806,0.6669286655277881
539,0.5004866929608127,0.0358801642228304,0.5472493909996182
540,0.4936429993477207,0.0289875332765375,0.4422331252405272
541,0.487783177120866,0.0231563272198497,0.3533887507604888
542,0.4828927575833923,0.0183831801278617,0.2806649842589561
543,0.4809394835077741,0.0145650242885923,0.2224914839728287
544,0.479962846469965,0.0115138634727581,0.1760039355162117
545,0.4789862094321558,0.0089818234943914,0.1374257227332084
546,0.4789862094321558,0.006692957616132,0.1025525155020157
547,0.4770257010081094,0.0043771815804154,0.067269304562636
548,0.4740957898946821,0.0018014788851983,0.0280258457346532
549,0.4711658787812548,-0.0012058135310453,-0.017793322890557
550,0.466275459243781,-0.0047404469784434,-0.0716470702281498
551,0.4613850397063073,-0.0088184899619641,-0.1337802163477371
552,0.4565018545172618,-0.0133826754374921,-0.2033202393965009
553,0.451611434979788,-0.0183168100042232,-0.2784968143485717
554,0.4467282497907424,-0.0234653415161818,-0.3569399455334345
555,0.4418378302532686,-0.0286549206213039,-0.4360084786854152
556,0.4369474107157949,-0.0337150306390645,-0.5131044181802156
557,0.4330408625645585,-0.038495351883804,-0.5859374902194767
558,0.4301109514511312,-0.0428783255559409,-0.6527165665336937
559,0.4261971689514665,-0.046786252880768,-0.7122578270057899
560,0.4232672578380392,-0.0501830659751483,-0.7640117406322345
561,0.4213067494139927,-0.0530715140071225,-0.8080201937933993
562,0.4193534753383746,-0.0554868641180604,-0.8448205173749087
563,0.4164235642249472,-0.0574883317325371,-0.8753149187940279
564,0.414470290149329,-0.0591493701584881,-0.9006225341494605
565,0.4134864187630917,-0.0605477387345558,-0.921928106311636
566,0.4125097817252826,-0.0617560543411198,-0.940338027551947
567,0.4115331446874735,-0.0628334245646797,-0.9567528622645396
568,0.4115331446874735,-0.0638187820593367,-0.9717657891618176
569,0.4115331446874735,-0.0647266198055668,-0.9855976235900792
570,0.4115331446874735,-0.0655458668279586,-0.9980796879420248
571,0.4115331446874735,-0.0662425442979303,-1.0086942800919598
572,0.4115331446874735,-0.0667665180020984,-1.0166775541416588
573,0.4105565076496644,-0.0670620800165779,-1.0211807430259503
574,0.4095798706118552,-0.0670813007346682,-1.021473590279021
575,0.4095798706118552,-0.0667982392736383,-1.0171608600821924
576,0.4095798706118552,-0.0662214062229501,-1.008372219950186
577,0.4095798706118552,-0.0654015607333492,-0.9958810373396292
578,0.4095798706118552,-0.0644321362900003,-0.9811108667372352
579,0.4105565076496644,-0.0634403661588354,-0.9660002367792568
580,0.4105565076496644,-0.0625684942722621,-0.9527163789226998
581,0.414470290149329,-0.0619462297701428,-0.9432355442695468
582,0.4193534753383746,-0.0616576491077117,-0.9388387234075364
583,0.4213067494139927,-0.0617077024835502,-0.939601337663276
584,0.4222906208002301,-0.0619947840978121,-0.9439753189967888
585,0.4222906208002301,-0.0622959135600532,-0.9485633336287936
586,0.4222906208002301,-0.0622696908441993,-0.9481638037949036
587,0.4222906208002301,-0.0614795313477422,-0.9361249175817028
588,0.4222906208002301,-0.0594362785712294,-0.9049938765810708
589,0.4232672578380392,-0.0556557350854775,-0.8473934388807101
590,0.4252205319136574,-0.049723540277138,-0.7570103977195785
591,0.4301109514511312,-0.0413577323989053,-0.629548778161593
592,0.4408611932154596,-0.0304587897147959,-0.4634922650063195
593,0.4555252174794526,-0.0171382984940653,-0.2605409889293312
594,0.4740957898946821,-0.0017206164136609,-0.0256368701159286
595,0.4956035077717671,0.0152835415744432,0.2334388280031952
596,0.5180806283382331,0.0332277200915281,0.5068366980853404
597,0.539588346215318,0.0513964257786828,0.7836554687127074
598,0.5581589186305476,0.0690771993614658,1.053040095840392
599,0.5728229428945406,0.0856269299216732,1.3051921283943535
600,0.5855336930829155,0.1005230584920071,1.5321498472847186
601,0.5962839348472438,0.1133937220016626,1.7282475391759071
602,0.605080902535954,0.1240250060477524,1.8902259998600703
603,0.6129012331868552,0.1323473697642858,2.017025703283818
604,0.6177916527243289,0.1384063126945033,2.109339881416495
605,0.6197449267999471,0.1423241698166054,2.169032432482516
606,0.6207215638377562,0.144260511587705,2.1985345752228858
607,0.6216982008755654,0.1443780639919901,2.200325606053525
608,0.6216982008755654,0.142819459492614,2.1765786760938077
609,0.6207215638377562,0.1396977049602822,2.129015560331992
610,0.6177916527243289,0.1351004288083609,2.058971367062401
611,0.6129012331868552,0.1291053075251333,1.9676295768457024
612,0.6070414109600005,0.1218020821173061,1.8563574854914684
613,0.5992210803090994,0.1133155637655726,1.7270567186958257
614,0.5894402412341518,0.1038240716462807,1.5824441510686602
615,0.5796666365076326,0.0935687490818269,1.4261938471911373
616,0.5679397577054951,0.0828509564448194,1.262897339850328
617,0.5552290075171202,0.0720171498376851,1.0978332412931116
618,0.5425254916771737,0.0614329809072306,0.9365726274722695
619,0.5307913785266078,0.0514504153694787,0.7844780552198662
620,0.5210177738000886,0.0423730740148821,0.6461754970953805
621,0.5131974431491875,0.034425437379154,0.5250851431220253
622,0.5073303865739046,0.0277309178572084,0.4230873070672487
623,0.5024472013848591,0.0223022488563228,0.3403759953841881
624,0.4995100559230035,0.0180455286841743,0.2755205199723127
625,0.4985334188851945,0.0147770166894796,0.2257214045189827
626,0.4965801448095762,0.0122498062125827,0.1872167741189314
627,0.494626870733958,0.0101861137650381,0.1557743138733364
628,0.4936429993477207,0.0083103388023027,0.1271949682612206
629,0.4916897252721025,0.0063783109129363,0.0977585519109731
630,0.487783177120866,0.0041991280258805,0.0645564769721142
631,0.4838693946212014,0.0016474737248182,0.0256794199682415
632,0.479962846469965,-0.0013340020051724,-0.0197464050983639
633,0.4760490639703003,-0.004741081280144,-0.0716567344618046
634,0.4721425158190639,-0.0085208564583356,-0.1292454662124973
635,0.4682287333193992,-0.0125882341615176,-0.1912161159031924
636,0.4643221851681628,-0.0168432146799945,-0.2560450859162254
637,0.459431765630689,-0.0211865076468976,-0.3222195861957162
638,0.4555252174794526,-0.0255316904637602,-0.388422880267757
639,0.451611434979788,-0.0298128585731149,-0.4536508449498274
640,0.4477048868285516,-0.0339874674649742,-0.5172552712195304
641,0.4437911043288869,-0.0380347535220241,-0.5789198041797367
642,0.4408611932154596,-0.0419506641575799,-0.6385826985370147
643,0.4359707736779858,-0.0457405531271455,-0.6963255242194788
644,0.4310875884889403,-0.0494109686714967,-0.7522480503572223
645,0.4271738059892756,-0.0529617144492715,-0.806347285489247
646,0.4242438948758483,-0.0563791181198983,-0.8584149175555853
647,0.4213067494139927,-0.0596312555355597,-0.9079645495885996
648,0.4183768383005654,-0.0626658166556541,-0.9541991847421668
649,0.4174002012627563,-0.0654112833563654,-0.9960291714223184
650,0.414470290149329,-0.0677819657091167,-1.0321489361285394
651,0.4125097817252826,-0.0696870839440287,-1.061175356434361
652,0.4095798706118552,-0.0710434416387944,-1.081840849951682
653,0.407626596536237,-0.0717903876355574,-1.093221334401664
654,0.4066499594984279,-0.0719049204497591,-1.0949663586961698
655,0.4066499594984279,-0.0714142239281357,-1.087490096478826
656,0.4066499594984279,-0.0704028508308002,-1.0720807953282248
657,0.4086032335740461,-0.0690122634314648,-1.0508937773335372
658,0.4105565076496644,-0.0674314291024012,-1.0268081532350462
659,0.4125097817252826,-0.0658784907072971,-1.003147552155648
660,0.414470290149329,-0.0645749621165686,-0.983286963945548
661,0.4154469271871381,-0.0637151923907487,-0.9701874948572043
662,0.4164235642249472,-0.0634347911227991,-0.9659152954164352
663,0.4164235642249472,-0.0637821852879287,-0.9712082000057966
664,0.4154469271871381,-0.0646974330462572,-0.9851529335296092
665,0.414470290149329,-0.0660018537254617,-1.0050271136179352
666,0.4134864187630917,-0.0674009923769348,-1.0263444186647024
667,0.4115331446874735,-0.0685020110626907,-1.0431195618299192
668,0.4105565076496644,-0.0688449086245252,-1.048343956079712
669,0.4105565076496644,-0.0679451711031196,-1.0346355368421818
670,0.4115331446874735,-0.0653437514653854,-0.99500025415319
671,0.414470290149329,-0.0606589152184281,-0.9236219934887486
672,0.4203301123761837,-0.0536337099108916,-0.8165858220562388
673,0.4281504430270847,-0.0441728195900175,-0.6724395040542731
674,0.4389079191398414,-0.0323634694929738,-0.4925120049763922
675,0.4535647090554062,-0.0184768552442407,-0.2809352668916018
676,0.4721425158190639,-0.0029491424720606,-0.0443547182128531
677,0.4916897252721025,0.0136559072150637,0.2086401576877394
678,0.5102675320357603,0.0306977137414331,0.4682894697041859
679,0.5288381044509897,0.047515929621682,0.7245321500734143
680,0.5444787657527919,0.0634857751420885,0.9678490423269648
681,0.5581589186305476,0.078064314901368,1.1899679716109108
682,0.5689163947433042,0.0908223033354707,1.38434894375156
683,0.5767367253942053,0.1014590535495024,1.5464106870820369
684,0.5835804190072973,0.1098008535847385,1.673506522654186
685,0.5884636041963428,0.1157861472073963,1.7646985784338851
686,0.5894402412341518,0.1194425283102728,1.8204072755349128
687,0.590416878271961,0.120861317111714,1.8420239706676045
688,0.590416878271961,0.120175062900817,1.831568187505644
689,0.5894402412341518,0.11754188364409,1.7914490146135436
690,0.5865103301207246,0.1131383983049717,1.724357422122606
691,0.5826037819694881,0.1071606010115949,1.6332795805688134
692,0.5767367253942053,0.0998299203765882,1.5215891808129791
693,0.5698930317811133,0.0914003721773976,1.393156412424099
694,0.560119427054594,0.0821624262347106,1.2524068795179293
695,0.5483853139040282,0.0724400245253243,1.104276168663798
696,0.5366584351018908,0.0625789264870244,0.9540322777118936
697,0.523947684913516,0.0529267976966034,0.8069722464852119
698,0.5131974431491875,0.0438076173597216,0.6680322287727997
699,0.5053771124982864,0.0354944926469985,0.5413732909996504
700,0.4985334188851945,0.0281854780387474,0.4300129952696142
701,0.4926663623099116,0.0219864785402448,0.3355649124043406
702,0.4868065400830569,0.0169040465191194,0.2581288744107379
703,0.4828927575833923,0.0128492675713001,0.196350179613858
704,0.4809394835077741,0.0096522841719898,0.1476408752995246
705,0.479962846469965,0.0070854886576334,0.1085331264609086
706,0.4789862094321558,0.0048921563772723,0.0751154710768964
707,0.4780023380459186,0.0028164868776289,0.0434905282211023
708,0.4740957898946821,0.0006309054398614,0.0101909648330215
709,0.4701892417434457,-0.0018428469224698,-0.0274991766425602
710,0.466275459243781,-0.0047209807703459,-0.0713504826843196
711,0.4623689110925446,-0.0080538188718867,-0.1221296720142918
712,0.4574784915550708,-0.0118299197092026,-0.1796624214324182
713,0.4525880720175971,-0.0159862055870069,-0.2429876778860524
714,0.4486815238663607,-0.0204216505780819,-0.3105662082864189
715,0.444767741366696,-0.0250121114454362,-0.3805065637412633
716,0.4408611932154596,-0.0296243192235106,-0.4507782555716393
717,0.4359707736779858,-0.0341277026118955,-0.5193918967798723
718,0.4310875884889403,-0.0384033650252083,-0.5845359765646908
719,0.4271738059892756,-0.042350038662978,-0.6446675766514958
720,0.4242438948758483,-0.0458871834606681,-0.6985595869733878
721,0.4213067494139927,-0.0489556562888214,-0.7453109016029935
722,0.4183768383005654,-0.0515165791779975,-0.7843291750045168
723,0.4164235642249472,-0.0535491447490402,-0.8152973855245071
724,0.414470290149329,-0.0550480678235079,-0.8381350080763711
725,0.4134864187630917,-0.0560212398248023,-0.8529622765481011
726,0.4125097817252826,-0.056487929443017,-0.860072769095189
727,0.4125097817252826,-0.0564776618922955,-0.8599163324828613
728,0.4134864187630917,-0.0560297413686461,-0.8530918062436005
729,0.4134864187630917,-0.0551932730339989,-0.8403473576266874
730,0.414470290149329,-0.054027481204113,-0.822585329515648
731,0.4164235642249472,-0.0526020903729451,-0.8008680457233092
732,0.4183768383005654,-0.0509975343880875,-0.776420997993041
733,0.4203301123761837,-0.0493047875260308,-0.750630272258012
734,0.4222906208002301,-0.047624630169432,-0.7250313604850599
735,0.4222906208002301,-0.0460661040078266,-0.701285624081216
736,0.4232672578380392,-0.0447437543587122,-0.6811382778414573
737,0.4232672578380392,-0.0437730758605629,-0.6663490004345323
738,0.4232672578380392,-0.0432635248181192,-0.6585854703531967
739,0.4232672578380392,-0.0433086812014296,-0.6592734739308428
740,0.4242438948758483,-0.0439736867128225,-0.6694055114735257
741,0.4232672578380392,-0.0452808732735679,-0.6893218325894535
742,0.4222906208002301,-0.0471953300158902,-0.7184905345847538
743,0.4203301123761837,-0.0496127799306399,-0.7553228508199916
744,0.4174002012627563,-0.0523523430898891,-0.79706289102195
745,0.4154469271871381,-0.0551564756358521,-0.8397867117175798
746,0.4125097817252826,-0.0576996408678278,-0.8785344290916084
747,0.4095798706118552,-0.0596062069159189,-0.9075829083085728
748,0.4086032335740461,-0.0604768204141838,-0.9208475933351824
749,0.4095798706118552,-0.0599212501576356,-0.9123829135686136
750,0.4105565076496644,-0.0575946120106173,-0.8769342072797728
751,0.4134864187630917,-0.0532331166467802,-0.8104823749091301
752,0.4193534753383746,-0.0466851116669239,-0.7107168374076218
753,0.4271738059892756,-0.0379333103079037,-0.5773742132991958
754,0.4369474107157949,-0.0271048186254699,-0.4123910930431805
755,0.4506347979419788,-0.0144669378034573,-0.219840082931432
756,0.4672520962815901,-0.0004086395662391,-0.0056475640944413
757,0.4858226686968196,0.0145901596632734,0.2228744470544201
758,0.5034238384226682,0.0299972972147728,0.4576179092102387
759,0.5200411367622795,0.0452693903431435,0.6903038317793493
760,0.5337212896400352,0.059889310645936,0.9130532358687328
761,0.5435021287149827,0.0733953473455434,1.1188314866484077
762,0.553275733441502,0.0853994941940701,1.3017269130071982
763,0.5620727011302122,0.0955949011705614,1.4570643417637967
764,0.5698930317811133,0.1037547638360638,1.5813881758577963
765,0.5757600883563961,0.1097262015333877,1.6723691224763435
766,0.5796666365076326,0.1134228366016832,1.7286911298159773
767,0.5826037819694881,0.1148190275781513,1.7499635240262137
768,0.5816199105832508,0.1139473874381794,1.7366831970656051
769,0.5806432735454417,0.1108996990078589,1.6902485539455374
770,0.5777133624320144,0.1058299428471805,1.6130056456203878
771,0.5708696688189224,0.0989571430869023,1.5082915282161218
772,0.5620727011302122,0.0905653224522093,1.380433577769852
773,0.5522990964036929,0.0809981428112167,1.2346678335174617
774,0.5425254916771737,0.0706467096066025,1.076953185965077
775,0.5307913785266078,0.0599302844386718,0.9136775134110282
776,0.5190644997244704,0.0492709984739891,0.7512724149237344
777,0.5083070236117138,0.0390648791116289,0.5957717720374242
778,0.4975567818473854,0.0296524204825919,0.4523633602806582
779,0.4897364511964843,0.0212923732286156,0.3249895097114033
780,0.4828927575833923,0.0141422815927081,0.2160505676312151
781,0.4770257010081094,0.0082485632929201,0.1262537553395835
782,0.4721425158190639,0.0035477526436712,0.0546321083558296
783,0.4692053703572084,-0.0001208805403029,-0.0012632617028348
784,0.4672520962815901,-0.0029925776194941,-0.0450164970055527
785,0.466275459243781,-0.0053468016681012,-0.0808855026539599
786,0.466275459243781,-0.0074731176367456,-0.1132820961450211
787,0.4643221851681628,-0.0096376085178533,-0.1462603233814276
788,0.4623689110925446,-0.0120542099747596,-0.1830797124956484
789,0.4584551285928799,-0.0148646185444193,-0.2258991548163991
790,0.4545485804416435,-0.0181290432182113,-0.2756359957650436
791,0.4496581609041697,-0.0218283002092206,-0.3319979507726517
792,0.444767741366696,-0.025875965532751,-0.3936682622446947
793,0.4398845561776505,-0.0301378441347158,-0.4586023315985219
794,0.4349941366401767,-0.0344551261589805,-0.5243805286251556
795,0.4310875884889403,-0.0386673873713265,-0.5885586264181839
796,0.4271738059892756,-0.0426320353953363,-0.6489640846205553
797,0.4252205319136574,-0.0462377866757035,-0.7039013847126027
798,0.4232672578380392,-0.0494110778774936,-0.7522497142220197
799,0.4222906208002301,-0.0521157027288619,-0.7934574336521013
800,0.4203301123761837,-0.0543471250690746,-0.8274554299653355
801,0.4174002012627563,-0.0561235988127309,-0.8545218201770723
802,0.4154469271871381,-0.0574763203237233,-0.8751319127242181
803,0.414470290149329,-0.058440456025297,-0.8898215039489952
804,0.414470290149329,-0.0590482925034892,-0.899082512935155
805,0.414470290149329,-0.0593251983586364,-0.9033014561951342
806,0.414470290149329,-0.0592886600578053,-0.9027447578980162
807,0.414470290149329,-0.0589503081903612,-0.8975896219407218
808,0.4154469271871381,-0.0583205178989013,-0.8879941242075928
809,0.4164235642249472,-0.057414848697182,-0.8741953297677525
810,0.4183768383005654,-0.0562613329682293,-0.8566203405810559
811,0.4193534753383746,-0.0549074569930151,-0.8359926585934672
812,0.4203301123761837,-0.0534255863693225,-0.8134148475296106
813,0.4213067494139927,-0.0519155509283892,-0.790407916735501
814,0.4232672578380392,-0.0505031578761471,-0.768888667368128
815,0.4232672578380392,-0.0493336270012686,-0.7510696710912768
816,0.4242438948758483,-0.0485593992271552,-0.739273520924831
817,0.4242438948758483,-0.0483224584883316,-0.7356634869927463
818,0.4242438948758483,-0.0487321829226398,-0.7419060568353177
819,0.4242438948758483,-0.0498407341437592,-0.758795965863053
820,0.4242438948758483,-0.0516189825006212,-0.7858893941178074
821,0.4232672578380392,-0.0539367607196866,-0.821203110363549
822,0.4222906208002301,-0.0565515963600094,-0.8610427995417679
823,0.4203301123761837,-0.0591097659258734,-0.9000191232531196
824,0.4193534753383746,-0.0611624083984815,-0.9312932258550796
825,0.4174002012627563,-0.0621975568622783,-0.9470647689742808
826,0.4154469271871381,-0.0616864806674111,-0.9392780016394964
827,0.4154469271871381,-0.05914001891304,-0.9004800583829777
828,0.4174002012627563,-0.0541681191867653,-0.8247280926894082
829,0.4222906208002301,-0.0465341537952142,-0.70841684019358
830,0.4310875884889403,-0.036195292853441,-0.5508937438944093
831,0.444767741366696,-0.023321569723592,-0.3547494355675133
832,0.4633455481303537,-0.008289245757752,-0.1257166408518099
833,0.4848460316590105,0.0083517558474518,0.1278259992063306
834,0.5073303865739046,0.0259320315111171,0.3956794379874269
835,0.5268848303753715,0.043730299140877,0.6668542068126118
836,0.5444787657527919,0.061043990171316,0.930645956681546
837,0.5591427900167849,0.0772523499281868,1.1775968567093462
838,0.5698930317811133,0.0918635888016225,1.400213990363883
839,0.5816199105832508,0.1045410466757532,1.5933679972493715
840,0.5914007496581983,0.1151071959629026,1.754354063417081
841,0.5992210803090994,0.1235277520288537,1.8826498274804175
842,0.605080902535954,0.1298806769490178,1.9794431212113592
843,0.6080180479978096,0.1343163380367532,2.047024944064853
844,0.6099713220734279,0.1370156090905398,2.0881510929257225
845,0.6109479591112369,0.1381523776947935,2.105470922578738
846,0.611924596149046,0.1378658023616724,2.1011046549550185
847,0.6099713220734279,0.1362458517911992,2.0764230550041463
848,0.6080180479978096,0.1333333867105492,2.032048677599229
849,0.6060575395737632,0.1291336440900122,1.968061313326476
850,0.6021509914225267,0.1236397918564608,1.8843568685802925
851,0.597260571885053,0.1168615473118962,1.7810833963722743
852,0.590416878271961,0.108852984209146,1.6590647655040136
853,0.5806432735454417,0.0997338151729163,1.5201249199685674
854,0.5689163947433042,0.089699674381373,1.3672445460968763
855,0.5571822815927384,0.0790190351025651,1.2045141080798032
856,0.5444787657527919,0.0680169432526723,1.0368860121296368
857,0.5307913785266078,0.0570481925189301,0.8697659021055502
858,0.5190644997244704,0.0464644264246069,0.7085114259042256
859,0.5092836606495229,0.0365805939541147,0.5579211526794862
860,0.5014633299986218,0.0276460512590377,0.4217942778456047
861,0.494626870733958,0.0198244623908646,0.3026243902310374
862,0.4887598141586752,0.0131848290007741,0.201462800401294
863,0.4848460316590105,0.007703942289853,0.1179558986224995
864,0.4809394835077741,0.003278735185741,0.050533352876831
865,0.4780023380459186,-0.0002542908453589,-0.0032959038332389
866,0.4750724269324912,-0.0030960398927779,-0.0465928503127111
867,0.4721425158190639,-0.0054616529277763,-0.0826353787901969
868,0.4692053703572084,-0.0075600657668578,-0.1146068396298046
869,0.4672520962815901,-0.0095782036310679,-0.14535522931406
870,0.4633455481303537,-0.0116706262101333,-0.1772354224298161
871,0.4604084026684982,-0.013954421157294,-0.212031368851304
872,0.4574784915550708,-0.0165083760528035,-0.2509434777591237
873,0.4545485804416435,-0.0193750583162425,-0.2946203072267012
874,0.4525880720175971,-0.0225644486077558,-0.3432139227956832
875,0.4496581609041697,-0.0260581389324864,-0.3964438598807671
876,0.4467282497907424,-0.0298136341022747,-0.4536626609279328
877,0.4418378302532686,-0.0337687465862563,-0.513922835447838
878,0.4369474107157949,-0.0378462732618228,-0.5760481150888985
879,0.4330408625645585,-0.0419590614821144,-0.6387106403449908
880,0.4281504430270847,-0.0460153351758287,-0.7005121091208311
881,0.4242438948758483,-0.0499239317278383,-0.760063565951937
882,0.4203301123761837,-0.0535990045716935,-0.8160570507999672
883,0.4164235642249472,-0.0569637928506871,-0.8673230336856337
884,0.4134864187630917,-0.0599532226244244,-0.912870046725086
885,0.4115331446874735,-0.0625153510678764,-0.9519066879761592
886,0.4095798706118552,-0.0646119543046112,-0.9838505776774832
887,0.4086032335740461,-0.0662188207291342,-1.0083328273136434
888,0.407626596536237,-0.0673264444737532,-1.0252086052904912
889,0.407626596536237,-0.0679417235962017,-1.0345830105564258
890,0.4056660881121906,-0.0680909104045945,-1.0368560238136284
891,0.4046894510743815,-0.0678234699071607,-1.032781294936935
892,0.4046894510743815,-0.0672158087129497,-1.0235229565810895
893,0.4037128140365724,-0.0663732669232588,-1.0106859726791868
894,0.4046894510743815,-0.0654285591671662,-0.9962923860282354
895,0.4056660881121906,-0.0645351485923078,-0.982680364277416
896,0.407626596536237,-0.0638548266213349,-0.9723149648440016
897,0.4086032335740461,-0.0635398901206727,-0.9675165858928452
898,0.407626596536237,-0.0637114829696961,-0.970130978042347
899,0.407626596536237,-0.0644366103937362,-0.9811790342730606
900,0.4056660881121906,-0.0657068614621317,-1.0005326054737842
901,0.4037128140365724,-0.0674219684064676,-1.0266640098787323
902,0.4027361769987633,-0.0693810681394251,-1.0565128933904029
903,0.400782902923145,-0.0712839924295906,-1.0855058867092937
904,0.400782902923145,-0.0727441330672121,-1.107752619261916
905,0.3998062658853359,-0.0733133884015184,-1.1164258051524854
906,0.3998062658853359,-0.0725183635657363,-1.1043127905300392
907,0.400782902923145,-0.0699053979424407,-1.0645015929694093
908,0.4037128140365724,-0.0650902969515627,-0.991138616008214
909,0.4086032335740461,-0.0578071619037115,-0.880172621788568
910,0.4164235642249472,-0.0479498176330174,-0.7299859233165106
911,0.4261971689514665,-0.0355993631777053,-0.5418141471934647
912,0.4408611932154596,-0.0210325194607237,-0.3198734190486565
913,0.459431765630689,-0.0047077442225198,-0.0711488103715163
914,0.479962846469965,0.0127706929028157,0.195153014361317
915,0.5004866929608127,0.0307068603295155,0.4684288273068684
916,0.5200411367622795,0.0483784735246714,0.7376738865817263
917,0.538611709177509,0.0651041882981498,0.9925072182004828
918,0.5542523704793112,0.0803032336802181,1.224080183816208
919,0.5659792492814486,0.0935390135540503,1.4257407960831052
920,0.5737995799323498,0.1045410801104949,1.5933685066617786
921,0.5806432735454417,0.1132036354529874,1.7253513766411004
922,0.5835804190072973,0.1195627268556011,1.8222386230244865
923,0.5845570560451063,0.1237577899828148,1.8861546904414688
924,0.5855336930829155,0.1259855260889807,1.9200965232175389
925,0.5855336930829155,0.1264548916690316,1.927247786773773
926,0.5845570560451063,0.1253511393935857,1.9104309945802536
927,0.5835804190072973,0.12281459128253,1.8717840957956011
928,0.5816199105832508,0.1189366336958918,1.8126994548661588
929,0.5786899994698235,0.1137719330462499,1.7340099703695817
930,0.5737995799323498,0.1073627281718494,1.6363591941073612
931,0.5689163947433042,0.0997688171149578,1.5206582102718138
932,0.560119427054594,0.0910959095360051,1.3885176134065211
933,0.5503385879796465,0.0815155260371942,1.2425506949069531
934,0.5366584351018908,0.0712715082876598,1.0864726314202453
935,0.5229710478757068,0.0606711001476038,0.9249645966705136
936,0.5102675320357603,0.0500618484493634,0.7633218212878089
937,0.4975567818473854,0.039798499285986,0.6069492239852834
938,0.4868065400830569,0.0302059823293847,0.4607974398752072
939,0.4780023380459186,0.0215451359075771,0.3288406070463154
940,0.4711658787812548,0.0139870300729539,0.2136851523079446
941,0.466275459243781,0.0075998678452575,0.1163702182607432
942,0.4633455481303537,0.0023499437512768,0.0363822676270224
943,0.4604084026684982,-0.0018844329311589,-0.0281327819196138
944,0.4565018545172618,-0.0052892459139231,-0.0800085820087333
945,0.4535647090554062,-0.0080857483078823,-0.1226161495527208
946,0.4496581609041697,-0.0105007989938036,-0.1594119110885668
947,0.4477048868285516,-0.0127406749188575,-0.193538706392958
948,0.4457443784045051,-0.0149713930483556,-0.2275259733373734
949,0.4418378302532686,-0.0173072837051322,-0.2631156510537124
950,0.437924047753604,-0.019808227019159,-0.3012200744242277
951,0.4340174996023676,-0.0224846968437053,-0.3419988232910755
952,0.4310875884889403,-0.025308693859629,-0.3850252994564107
953,0.4271738059892756,-0.0282279792607827,-0.429503591403708
954,0.4242438948758483,-0.0311808604687514,-0.4744937497492451
955,0.4222906208002301,-0.0341091037684346,-0.5191085244213461
956,0.4193534753383746,-0.0369672174298533,-0.5626548024936786
957,0.4154469271871381,-0.0397271754573259,-0.6047055793240971
958,0.4125097817252826,-0.0423784561389075,-0.6451005458946872
959,0.4105565076496644,-0.0449239517111849,-0.683883768381109
960,0.4086032335740461,-0.0473728702648407,-0.7211955414409165
961,0.4066499594984279,-0.0497322131865481,-0.7571425383443432
962,0.4046894510743815,-0.0519986978408705,-0.791674744790887
963,0.4017595399609542,-0.0541529775945092,-0.8244973950807921
964,0.3998062658853359,-0.0561576185690226,-0.8550401458781909
965,0.3968691204234804,-0.0579595722884119,-0.8824947495201785
966,0.3939392093100531,-0.0594969802904465,-0.9059187292138328
967,0.3919859352344348,-0.0607092500058149,-0.9243888953365812
968,0.3900326611588167,-0.0615486452497889,-0.937177938403728
969,0.3900326611588167,-0.0619913035251082,-0.9439222889200422
970,0.3890487897725793,-0.0620457076679869,-0.9447511915511948
971,0.3910092981966258,-0.0617571628251115,-0.940354916436666
972,0.392962572272244,-0.0612076141822866,-0.9319819820996712
973,0.3939392093100531,-0.0605109654641847,-0.9213678280138112
974,0.392962572272244,-0.0598046707184535,-0.9106067068541402
975,0.392962572272244,-0.0592385849636108,-0.9019818127409612
976,0.3919859352344348,-0.058961881990041,-0.8977659605888356
977,0.3900326611588167,-0.0591085041861793,-0.8999998993613914
978,0.3890487897725793,-0.0597813937526168,-0.9102520585276276
979,0.3880721527347702,-0.0610358730868865,-0.9293653312653488
980,0.3870955156969611,-0.0628630495111047,-0.957204228552842
981,0.386118878659152,-0.065174905391928,-0.9924277119322666
982,0.3851422416213429,-0.0677935377822848,-1.0323252484714858
983,0.3831889675457247,-0.0704474994518694,-1.072761062630002
984,0.3812284591216783,-0.0727780780413426,-1.1082698055805005
985,0.37927518504606,-0.0743574847641482,-1.1323336786409106
986,0.3782985480082509,-0.0747193525664287,-1.137847103861274
987,0.3773219109704418,-0.0733998943203596,-1.1177438110973197
988,0.3782985480082509,-0.0699859009222106,-1.065728138012048
989,0.3812284591216783,-0.0641638917629935,-0.9770238876495592
990,0.3880721527347702,-0.0557636086465246,-0.8490370026582534
991,0.3978529918097178,-0.0447890467723616,-0.6818283539801245
992,0.4125097817252826,-0.0314315314562588,-0.4783129780304762
993,0.4301109514511312,-0.0160618721289579,-0.2441405348633829
994,0.4506347979419788,0.0007980665430679,0.0127378348128161
995,0.4711658787812548,0.0185206171140054,0.2827589769845869
996,0.4907130882342934,0.0364278702581044,0.5555942513303643
997,0.5073303865739046,0.0538495913524591,0.8210319494577417
998,0.5200411367622795,0.0701757276810762,1.069777295736194
999,0.5337212896400352,0.0848973795273725,1.294076683698488
1000,0.54643203982841,0.0976325965936809,1.488110710814717
1001,0.5571822815927384,0.1081359539604115,1.6481400780014992
1002,0.5650026122436396,0.1162930374412002,1.7724215683804845
1003,0.5698930317811133,0.1221025933221844,1.8609360803416768
1004,0.5718463058567315,0.1256502659309151,1.9149884926074296
1005,0.5718463058567315,0.12707861070119,1.936750782676285
1006,0.5698930317811133,0.1265583328462193,1.928823818660381
1007,0.5679397577054951,0.1242652938209104,1.8938870292755785
1008,0.5650026122436396,0.120366653565598,1.8344872667841343
1009,0.5610960640924031,0.1150176661655869,1.7529899855980997
1010,0.5562056445549294,0.1083684281585913,1.651682059629184
1011,0.5503385879796465,0.1005777456413579,1.5329830618082554
1012,0.5435021287149827,0.0918296992457586,1.3996976483991397
1013,0.5347051610262725,0.0823477966221906,1.2552311865245211
1014,0.523947684913516,0.0724019935713627,1.1036967282731225
1015,0.5122208061113784,0.0623053118767581,0.9498634799260856
1016,0.4995100559230035,0.0523990129450948,0.7989309072404591
1017,0.4887598141586752,0.0430278051087811,0.656150993403451
1018,0.4789862094321558,0.0345087717960245,0.5263548279981113
1019,0.4711658787812548,0.0270991023682407,0.4134609533835616
1020,0.4652988222059719,0.0209680325072089,0.3200478478610673
1021,0.4604084026684982,0.0161776909857039,0.2470621066805181
1022,0.4584551285928799,0.0126760478559842,0.1937110004963234
1023,0.4574784915550708,0.0103032032842068,0.1575582921768952
1024,0.4565018545172618,0.0088102051262956,0.1348109417745988
1025,0.4565018545172618,0.0078877789027871,0.1207568370088093
1026,0.4565018545172618,0.0072010688933879,0.110294109291568
1027,0.4565018545172618,0.0064258683670274,0.0984831382520339
1028,0.4545485804416435,0.0052818749863725,0.0810532317583299
1029,0.4525880720175971,0.0035591721617497,0.0548060963663174
1030,0.4496581609041697,0.0011352666056264,0.017875421847368
1031,0.4467282497907424,-0.0020186059578322,-0.0301770448921444
1032,0.4418378302532686,-0.0058417950654197,-0.0884272321570828
1033,0.4369474107157949,-0.0101978214733087,-0.1547957394032925
1034,0.4320642255267494,-0.0148949284989943,-0.2263609579028542
1035,0.4271738059892756,-0.019710697608522,-0.2997341143334308
1036,0.4232672578380392,-0.0244176523784096,-0.3714493732646221
1037,0.4193534753383746,-0.0288070049732979,-0.4383256389760573
1038,0.4154469271871381,-0.0327082263491834,-0.4977647274732275
1039,0.4115331446874735,-0.0360027910717963,-0.5479607828207903
1040,0.4086032335740461,-0.0386311415954983,-0.5880063850379796
1041,0.407626596536237,-0.0405926089460403,-0.6178913416194843
1042,0.4066499594984279,-0.0419387532824157,-0.6384012241999417
1043,0.4066499594984279,-0.042761348702493,-0.6509343048073563
1044,0.407626596536237,-0.0431769326134939,-0.6572661497563951
1045,0.407626596536237,-0.0433103101220627,-0.6592982921988509
1046,0.407626596536237,-0.04327950862178,-0.658828999911962
1047,0.4086032335740461,-0.0431843574870792,-0.6573792752818639
1048,0.407626596536237,-0.043100165904935,-0.656096530618175
1049,0.407626596536237,-0.0430770173869728,-0.6557438393260996
1050,0.4066499594984279,-0.0431441621531742,-0.6567668583542009
1051,0.4056660881121906,-0.0433180495592094,-0.6594162104211606
1052,0.4056660881121906,-0.0436118793270718,-0.6638930067606434
1053,0.4046894510743815,-0.0440443005921701,-0.6704813859803185
1054,0.4046894510743815,-0.0446451059417639,-0.6796352685476653
1055,0.4056660881121906,-0.0454564046037714,-0.6919962315185898
1056,0.4056660881121906,-0.0465286708170384,-0.7083333014261995
1057,0.4037128140365724,-0.0479120324335339,-0.7294102272460785
1058,0.4017595399609542,-0.0496439565012172,-0.7557978576855432
1059,0.3998062658853359,-0.0517349661038004,-0.7876565226627812
1060,0.3978529918097178,-0.0541542226715984,-0.8245163651007321
1061,0.3958924833856713,-0.0568168641663179,-0.8650844252521372
1062,0.3939392093100531,-0.0595749809824022,-0.9071071493482692
1063,0.3910092981966258,-0.0622140045302723,-0.9473153659794934
1064,0.3900326611588167,-0.0644559970709762,-0.9814744100831228
1065,0.3890487897725793,-0.0659708205657586,-1.0045542917633894
1066,0.3890487897725793,-0.0663954382669826,-1.0110237757246243
1067,0.3900326611588167,-0.0653607002002559,-0.9952584854235584
1068,0.3919859352344348,-0.0625239305646275,-0.952037405363745
1069,0.3958924833856713,-0.0576045728631524,-0.8770859710322737
1070,0.4027361769987633,-0.0504192418324707,-0.7676101208141576
1071,0.4125097817252826,-0.040912008547479,-0.6227577204651521
1072,0.4232672578380392,-0.029175784881833,-0.4439443771883744
1073,0.4359707736779858,-0.0154613289907362,-0.2349906473538524
1074,0.4525880720175971,-0.000171608198815,-0.0020361493431499
1075,0.4711658787812548,0.0161590717027674,0.2467784229057246
1076,0.4887598141586752,0.0328997903906655,0.501840354470772
1077,0.5073303865739046,0.0493682330160555,0.7527538823909722
1078,0.524924321951325,0.0648814652427879,0.989113805183768
1079,0.539588346215318,0.07880648019144,1.2012756171161867
1080,0.5513224593658839,0.090604820730952,1.3810353743508368
1081,0.560119427054594,0.0998666027034604,1.5221480734937989
1082,0.5650026122436396,0.1063310423872074,1.6206404084384272
1083,0.5659792492814486,0.1098927652965147,1.6749068913704968
1084,0.5659792492814486,0.1105952763589255,1.6856103642538829
1085,0.5640259752058304,0.1086145416457795,1.6554318497425446
1086,0.560119427054594,0.1042363400254036,1.588725480506344
1087,0.5552290075171202,0.0978308149694651,1.4911307700333063
1088,0.5503385879796465,0.0898267036801493,1.3691799670853826
1089,0.5435021287149827,0.0806864477040921,1.2299188405043928
1090,0.5347051610262725,0.0708822667672044,1.0805421396711403
1091,0.523947684913516,0.0608727199361144,0.9280364798828168
1092,0.5122208061113784,0.0510794904690328,0.7788266358670223
1093,0.5014633299986218,0.041864980290834,0.6384341707468605
1094,0.4926663623099116,0.0335123493580053,0.5111733153979591
1095,0.4858226686968196,0.0262103592202526,0.3999200446437883
1096,0.479962846469965,0.0200454298309136,0.3059910546570171
1097,0.4750724269324912,0.0150026552743606,0.2291592386029493
1098,0.4721425158190639,0.0109763539823485,0.1678144299511056
1099,0.4701892417434457,0.0077893357189868,0.1192569546514486
1100,0.4701892417434457,0.0052187048715285,0.0800907705994225
1101,0.4692053703572084,0.0030249201269753,0.0466662214617458
1102,0.4672520962815901,0.0009802346132897,0.0155133512483105
1103,0.4652988222059719,-0.0011072603759303,-0.0162917650080012
1104,0.4623689110925446,-0.0033769444349683,-0.0508727176500837
1105,0.459431765630689,-0.005907933855648,-0.0894349241147286
1106,0.4555252174794526,-0.0087203492626729,-0.1322849426505299
1107,0.451611434979788,-0.0117841960653084,-0.1789657750609408
1108,0.4486815238663607,-0.0150334219621957,-0.2284710471344962
1109,0.4457443784045051,-0.0183822244895635,-0.2794934707821627
1110,0.4428144672910778,-0.0217407905028216,-0.3306646511001021
1111,0.4408611932154596,-0.0250282596393747,-0.3807525979536546
1112,0.4389079191398414,-0.0281816093547714,-0.4287970985694259
1113,0.4369474107157949,-0.0311601209554614,-0.474177762101517
1114,0.4340174996023676,-0.0339458878494395,-0.5166217633487077
1115,0.4320642255267494,-0.0365413176048963,-0.5561657840690827
1116,0.4291270800648938,-0.0389647172309584,-0.5930887502272949
1117,0.4271738059892756,-0.0412449128536323,-0.6278298572674487
1118,0.4242438948758483,-0.043415579743042,-0.6609021822923814
1119,0.4222906208002301,-0.0455096828597631,-0.6928079801141553
1120,0.4213067494139927,-0.0475542547874247,-0.723959119728611
1121,0.4193534753383746,-0.0495657194732586,-0.7546058367309437
1122,0.4183768383005654,-0.0515460836409088,-0.7847787056035457
1123,0.4174002012627563,-0.0534804670048468,-0.8142510100124354
1124,0.4154469271871381,-0.055336509106355,-0.8425297053481953
1125,0.4134864187630917,-0.0570660918010939,-0.8688816625816975
1126,0.4115331446874735,-0.0586095395581162,-0.8923976641056008
1127,0.4105565076496644,-0.0599020793790825,-0.912090827195351
1128,0.4105565076496644,-0.0608819924370061,-0.9270208025434516
1129,0.4105565076496644,-0.0614996758637492,-0.9364318398386844
1130,0.4115331446874735,-0.061726753075161,-0.939891592865833
1131,0.4115331446874735,-0.0615643237006299,-0.9374168156006996
1132,0.4115331446874735,-0.0610493175987161,-0.9295701721219536
1133,0.4105565076496644,-0.0602576849140565,-0.9175088403832352
1134,0.4105565076496644,-0.0593029258922414,-0.9029621124426146
1135,0.4105565076496644,-0.0583284667089945,-0.8881152324403881
1136,0.4125097817252826,-0.0574928628084,-0.8753839543583429
1137,0.414470290149329,-0.0569478736659887,-0.8670804886626979
1138,0.4164235642249472,-0.056810986118717,-0.8649948671989337
1139,0.4183768383005654,-0.0571356250948169,-0.8699410732638619
1140,0.4183768383005654,-0.0578836301842096,-0.8813376940707636
1141,0.4183768383005654,-0.0589051998508577,-0.8969023503594981
1142,0.4183768383005654,-0.0599311997660393,-0.9125345060052992
1143,0.4183768383005654,-0.0605815013836612,-0.9224425147224172
1144,0.4193534753383746,-0.0603910230625951,-0.9195403831354676
1145,0.4193534753383746,-0.0588526176948788,-0.8961012075579331
1146,0.4203301123761837,-0.0554731521610643,-0.8446116017182894
1147,0.4222906208002301,-0.0498364056927348,-0.7587300174949124
1148,0.4261971689514665,-0.0416642693082176,-0.6342191807675276
1149,0.4359707736779858,-0.0308667500133479,-0.4697079564405079
1150,0.4506347979419788,-0.0175719880447468,-0.2671486917740345
1151,0.4692053703572084,-0.0021300653586584,-0.0318752425977402
1152,0.4887598141586752,0.014911531821645,0.2277708798177724
1153,0.5102675320357603,0.0328581809738649,0.501206392547254
1154,0.531768015564417,0.0509371259336489,0.7766575669006088
1155,0.5522990964036929,0.0683750937688663,1.0423428007033255
1156,0.5689163947433042,0.0844730932212954,1.287612248880474
1157,0.5826037819694881,0.0986676768622961,1.5038812149107397
1158,0.5923773866960075,0.1105705514829776,1.6852336555393677
1159,0.598237208922862,0.1199823998068615,1.828632768674366
1160,0.6021509914225267,0.1268813237138509,1.9337449141110523
1161,0.604104265498145,0.1313905161575929,2.0024470622052544
1162,0.605080902535954,0.1337328045756407,2.038134216342884
1163,0.6060575395737632,0.134181064497361,2.044963913658079
1164,0.6060575395737632,0.1330130606516794,2.0271681832292345
1165,0.6060575395737632,0.1304773153917507,1.988533516700737
1166,0.604104265498145,0.1267737069223896,1.932105262480158
1167,0.6001977173469085,0.1220493636394876,1.8601250718098237
1168,0.5962839348472438,0.1164076784259282,1.7741682407633363
1169,0.590416878271961,0.1099263325348979,1.6754183224995265
1170,0.5835804190072973,0.1026792537354721,1.5650016820167076
1171,0.5747834513185871,0.0947574132085143,1.4443043580830108
1172,0.566963120667686,0.0862841519942315,1.3152055773041122
1173,0.5581589186305476,0.0774220983307038,1.180183146834236
1174,0.5474086768662192,0.0683704309653807,1.042271758134263
1175,0.5366584351018908,0.0593530222282769,0.9048823345929724
1176,0.5268848303753715,0.0505996349226288,0.7715155469693584
1177,0.5180806283382331,0.0423235877457383,0.6454215232888144
1178,0.5102675320357603,0.0346998866933179,0.529266658473451
1179,0.5034238384226682,0.0278476220083504,0.4248654138956882
1180,0.4975567818473854,0.0218195299978688,0.3330212810056974
1181,0.494626870733958,0.0166002339018052,0.2534999791732825
1182,0.4916897252721025,0.0121130824607983,0.1851336482465542
1183,0.487783177120866,0.0082340079067926,0.1260319891795059
1184,0.4848460316590105,0.004809744476022,0.0738598416676259
1185,0.4819161205455832,0.0016773059084563,0.0261339437269519
1186,0.4780023380459186,-0.0013181624180159,-0.0195050728252011
1187,0.4740957898946821,-0.0043093200139932,-0.0650784109995626
1188,0.4701892417434457,-0.0073975268657494,-0.1121303936155042
1189,0.466275459243781,-0.0106488487270715,-0.1616675998459616
1190,0.4633455481303537,-0.0140944982304879,-0.2141655859971093
1191,0.459431765630689,-0.0177345472937742,-0.269625447809644
1192,0.4555252174794526,-0.0215435996993198,-0.3276602479937772
1193,0.451611434979788,-0.0254772198052736,-0.3875929642034452
1194,0.4477048868285516,-0.0294781631351264,-0.4485514184263372
1195,0.4437911043288869,-0.0334817713994399,-0.509550475645057
1196,0.4398845561776505,-0.0374202321883634,-0.5695569445992376
1197,0.4369474107157949,-0.0412257176589137,-0.6275373988889902
1198,0.4330408625645585,-0.0448326558783524,-0.6824927832089531
1199,0.4291270800648938,-0.0481795023780908,-0.7334854047797406
1200,0.4252205319136574,-0.0512103401972272,-0.7796633116439282
1201,0.4222906208002301,-0.0538764795257163,-0.820284664862029
1202,0.4203301123761837,-0.0561380596822824,-0.8547421462806692
1203,0.4193534753383746,-0.0579655864578345,-0.8825863815282353
1204,0.4174002012627563,-0.0593413867804022,-0.9035481033195232
1205,0.4164235642249472,-0.0602610437152243,-0.9175600151463724
1206,0.4154469271871381,-0.0607348801370876,-0.924779396539699
1207,0.4154469271871381,-0.0607894577303828,-0.9256109418649368
1208,0.4154469271871381,-0.0604689039121397,-0.9207269773484826
1209,0.4154469271871381,-0.0598357452127836,-0.9110801584839064
1210,0.4174002012627563,-0.0589708503056979,-0.897902602029205
1211,0.4183768383005654,-0.0579720728161711,-0.8826852078162222
1212,0.4183768383005654,-0.0569512058988491,-0.8671312586305616
1213,0.4183768383005654,-0.0560288689159131,-0.8530785135359559
1214,0.4174002012627563,-0.0553269315429853,-0.8423837813972403
1215,0.4174002012627563,-0.0549581352591275,-0.8367647936901724
1216,0.4174002012627563,-0.0550128572037436,-0.8375985383550814
1217,0.4183768383005654,-0.055543578002732,-0.8456846112791538
1218,0.4183768383005654,-0.0565484956749802,-0.8609955574413858
1219,0.4174002012627563,-0.0579566258734939,-0.8824498578823589
1220,0.4164235642249472,-0.0596173202512159,-0.9077522313119532
1221,0.414470290149329,-0.0612971699659696,-0.9333464558474752
1222,0.4134864187630917,-0.0626866638528304,-0.954516813063784
1223,0.4125097817252826,-0.0634178246109567,-0.9656567932957604
1224,0.4115331446874735,-0.0630925202818845,-0.960700449899368
1225,0.4125097817252826,-0.0613194425096816,-0.9336858007779982
1226,0.414470290149329,-0.0577560852500763,-0.8793944168514353
1227,0.4174002012627563,-0.0521507084852646,-0.7939907820710328
1228,0.4222906208002301,-0.0443785042549186,-0.6755733198062162
1229,0.4310875884889403,-0.0344662538409661,-0.5245500702149765
1230,0.4437911043288869,-0.0226008772342926,-0.3437689500930151
1231,0.4604084026684982,-0.0091194684291893,-0.1383659304165986
1232,0.4780023380459186,0.0055185945363108,0.0846598956520443
1233,0.4965801448095762,0.0207737137285573,0.3170872029839709
1234,0.5112441690735693,0.0360760460641459,0.55023385073136
1235,0.524924321951325,0.0508759330060257,0.775725230206547
1236,0.5376350721396999,0.0646876958575476,0.986161530875898
1237,0.5503385879796465,0.077121363597452,1.175601146301167
1238,0.560119427054594,0.087899277272854,1.339813659009875
1239,0.566963120667686,0.0968570718173187,1.4762947994955398
1240,0.5718463058567315,0.1039309254764308,1.5840721782054468
1241,0.5757600883563961,0.1091349466551383,1.6633607510853012
1242,0.5777133624320144,0.1125338762475326,1.7151469117186795
1243,0.5786899994698235,0.1142166788071257,1.7407861258584347
1244,0.5786899994698235,0.1142759867578694,1.7416897430062928
1245,0.5786899994698235,0.1127968594251322,1.7191537287794163
1246,0.5767367253942053,0.1098562013144337,1.674349801793331
1247,0.5737995799323498,0.1055318481170384,1.6084638682285743
1248,0.5698930317811133,0.0999182256265214,1.5229346014030511
1249,0.5640259752058304,0.0931440236734616,1.4197227222016997
1250,0.5571822815927384,0.085386781793605,1.3015332266142834
1251,0.5483853139040282,0.0768797708608874,1.171920234436565
1252,0.5376350721396999,0.0679080224422908,1.0352264924398629
1253,0.5259009589891341,0.0587925731227559,0.8963433205838889
1254,0.5141740801869966,0.0498645414380897,0.7603156476374998
1255,0.5034238384226682,0.0414329930593705,0.6318524044725028
1256,0.494626870733958,0.0337521181039053,0.5148264369035722
1257,0.487783177120866,0.0269936467748682,0.4118542298108531
1258,0.4828927575833923,0.0212295635461042,0.324032540106871
1259,0.479962846469965,0.0164282646167577,0.2508798516368354
1260,0.4770257010081094,0.0124648010451871,0.1904924397759993
1261,0.4750724269324912,0.0091433269234408,0.1398863922740865
1262,0.473119152856873,0.0062278430949277,0.095466021165122
1263,0.4711658787812548,0.0034761394632202,0.0535410084770321
1264,0.4672520962815901,0.0006716345812622,0.0108115148625841
1265,0.4633455481303537,-0.0023514524945661,-0.0352483015183881
1266,0.4584551285928799,-0.0056926906660985,-0.0861554744861768
1267,0.4535647090554062,-0.0093810111303069,-0.1423508003482592
1268,0.4486815238663607,-0.0133806313884008,-0.203289096222832
1269,0.4437911043288869,-0.0176051771758425,-0.2676543620527158
1270,0.4389079191398414,-0.0219368829865926,-0.3336523201845947
1271,0.4340174996023676,-0.0262473871530427,-0.3993272496312461
1272,0.4301109514511312,-0.0304168259484796,-0.4628529042063487
1273,0.4261971689514665,-0.0343485682344703,-0.5227570099127373
1274,0.4222906208002301,-0.0379778828986412,-0.5780533222012875
1275,0.4193534753383746,-0.041273940134346,-0.6282721175087769
1276,0.4174002012627563,-0.0442356600447288,-0.6733969425046711
1277,0.4154469271871381,-0.0468829020078257,-0.7137303750780082
1278,0.4134864187630917,-0.0492452026699703,-0.7497224361750963
1279,0.4115331446874735,-0.0513505816239429,-0.7818000328833457
1280,0.4086032335740461,-0.05321674889799,-0.8102329955545378
1281,0.4066499594984279,-0.0548463880866065,-0.8350622114891619
1282,0.4037128140365724,-0.0562272043439868,-0.8561003561656172
1283,0.4017595399609542,-0.057336351954384,-0.8729993517925598
1284,0.3998062658853359,-0.0581479379518522,-0.8853646926124272
1285,0.3988296288475269,-0.0586417356284285,-0.8928882040899203
1286,0.3988296288475269,-0.0588111506854744,-0.8954694153564096
1287,0.3998062658853359,-0.0586688704064725,-0.8933016301219517
1288,0.4017595399609542,-0.0582493760903523,-0.8869102061607137
1289,0.4037128140365724,-0.0576083808323203,-0.8771439893282268
1290,0.4046894510743815,-0.0568199738436787,-0.8651318043598671
1291,0.4037128140365724,-0.0559725460663828,-0.8522203774511037
1292,0.4037128140365724,-0.055164334706494,-0.8399064526782638
1293,0.4027361769987633,-0.0544987921808623,-0.8297662331756795
1294,0.4027361769987633,-0.0540792838485154,-0.8233745956629255
1295,0.4017595399609542,-0.0540021902992398,-0.8221999967728757
1296,0.400782902923145,-0.0543475323852265,-0.8274616358425381
1297,0.400782902923145,-0.0551667737417558,-0.8399436138692872
1298,0.4017595399609542,-0.0564683825175995,-0.8597749517406241
1299,0.400782902923145,-0.0582028440356768,-0.8862012428260748
1300,0.3998062658853359,-0.0602497952769764,-0.9173886337116748
1301,0.3978529918097178,-0.062410450571493,-0.9503084218725047
1302,0.3958924833856713,-0.0644082746377144,-0.9807473101160504
1303,0.3939392093100531,-0.0658999242326359,-1.0034741137851149
1304,0.3919859352344348,-0.0664970017560169,-1.012571199116208
1305,0.3919859352344348,-0.0657974199817053,-1.0019123569260806
1306,0.392962572272244,-0.0634234776775638,-0.9657429235339512
1307,0.3958924833856713,-0.0590623911198091,-0.8992973197411225
1308,0.4027361769987633,-0.0525042569265756,-0.7993774533378873
1309,0.4105565076496644,-0.0436723784387157,-0.6648147724602855
1310,0.4203301123761837,-0.0326415914838593,-0.4967494773052985
1311,0.4330408625645585,-0.0196415886015698,-0.298681168093165
1312,0.4496581609041697,-0.0050441240207606,-0.0762738998421841
1313,0.4682287333193992,0.0106647868983088,0.1630673875003712
1314,0.4868065400830569,0.026924265602266,0.4107971368491896
1315,0.5044004754604773,0.043144262475966,0.657925340226484
1316,0.5200411367622795,0.0587512604603857,0.8957138800169283
1317,0.5337212896400352,0.0732279584323426,1.1162811457508908
1318,0.545455402790601,0.0861423342246735,1.3130448388729803
1319,0.5542523704793112,0.0971637232025277,1.4809669462585724
1320,0.5620727011302122,0.1060660506333237,1.6166029886684354
1321,0.566963120667686,0.1127205912041455,1.7179917046080193
1322,0.5698930317811133,0.1170821802910152,1.7844449649446994
1323,0.5708696688189224,0.1191734221817225,1.8163071690685368
1324,0.5718463058567315,0.1190710544242319,1.8147474918263395
1325,0.5718463058567315,0.1168973174954407,1.7816283916187383
1326,0.5698930317811133,0.1128172095228779,1.7194637832839643
1327,0.566963120667686,0.1070403409988008,1.6314472965596762
1328,0.5610960640924031,0.0998243221047002,1.5215038854282472
1329,0.5542523704793112,0.0914757227979595,1.394304456016698
1330,0.5435021287149827,0.0823449161218759,1.2551872991629425
1331,0.531768015564417,0.0728125136254073,1.1099514201942342
1332,0.5200411367622795,0.0632672849648675,0.9645201215279872
1333,0.5073303865739046,0.0540778347078306,0.8245094698780584
1334,0.4985334188851945,0.0455622135972764,0.694765292855109
1335,0.4926663623099116,0.0379605238410704,0.5789457925980637
1336,0.4868065400830569,0.0314152165368553,0.4792213569376776
1337,0.4819161205455832,0.025962362953387,0.39614156846084
1338,0.4780023380459186,0.0215352033838195,0.3286892749116466
1339,0.4760490639703003,0.0179792614834485,0.2745108715497064
1340,0.4750724269324912,0.0150766015791133,0.2302858860112207
1341,0.473119152856873,0.0125755853721855,0.1921803520429782
1342,0.4701892417434457,0.0102218941400874,0.1563194643977755
1343,0.4682287333193992,0.0077867180926301,0.1192170724428587
1344,0.4643221851681628,0.0050888226590676,0.0781118825597969
1345,0.4604084026684982,0.0020084557160592,0.0311793489535297
1346,0.4565018545172618,-0.0015075437248314,-0.0223904902806412
1347,0.4525880720175971,-0.0054488135890282,-0.082439758363012
1348,0.4486815238663607,-0.00975116078162,-0.147990407989495
1349,0.4437911043288869,-0.0143107993144129,-0.2174611537259551
1350,0.4398845561776505,-0.0190008940548805,-0.2889195329048323
1351,0.4349941366401767,-0.0236882684009763,-0.3603364640995442
1352,0.4301109514511312,-0.0282484036791182,-0.429814778258279
1353,0.4261971689514665,-0.0325772436760167,-0.4957690727918307
1354,0.4222906208002301,-0.0365987976356843,-0.5570415509911923
1355,0.4193534753383746,-0.0402681005972161,-0.6129471257943944
1356,0.4164235642249472,-0.0435697082686302,-0.6632504876536213
1357,0.414470290149329,-0.046512496162568,-0.7080868640606043
1358,0.4115331446874735,-0.0491219967843442,-0.7478452687873728
1359,0.4095798706118552,-0.0514317602713403,-0.7830368724117458
1360,0.4086032335740461,-0.0534752312480221,-0.8141712379146056
1361,0.4066499594984279,-0.0552794207277037,-0.8416599056460329
1362,0.4037128140365724,-0.0568612613815828,-0.8657608621299495
1363,0.4027361769987633,-0.058227018365084,-0.8865695634022607
1364,0.4017595399609542,-0.0593745790631329,-0.9040538216165795
1365,0.400782902923145,-0.0602980010032395,-0.918123097140778
1366,0.400782902923145,-0.060993454126213,-0.9287190351148624
1367,0.400782902923145,-0.0614656417713814,-0.935913295712818
1368,0.4017595399609542,-0.0617338432463423,-0.939999618858644
1369,0.400782902923145,-0.0618367972075642,-0.941568227512854
1370,0.400782902923145,-0.0618356653810716,-0.941550982981315
1371,0.400782902923145,-0.0618142631485734,-0.9412248981302064
1372,0.3998062658853359,-0.0618756878865715,-0.9421607666918708
1373,0.3988296288475269,-0.0621345423208648,-0.9461046781353356
1374,0.3978529918097178,-0.0627042505019104,-0.9547847636080666
1375,0.3978529918097178,-0.0636795678784646,-0.9696447190610368
1376,0.3968691204234804,-0.0651153033405074,-0.9915196138604936
1377,0.3968691204234804,-0.0670034021233833,-1.0202867254477683
1378,0.3968691204234804,-0.06925165845223,-1.0545412047553695
1379,0.3958924833856713,-0.0716681315183125,-1.0913586377043791
1380,0.3949158463478622,-0.0739555260276274,-1.1262094271283063
1381,0.3939392093100531,-0.0757191517958914,-1.1530800653247713
1382,0.392962572272244,-0.0764905407636654,-1.164832963379897
1383,0.3919859352344348,-0.0757665198660034,-1.1538017662076616
1384,0.392962572272244,-0.073060840612331,-1.112577981882557
1385,0.3958924833856713,-0.0679628123815314,-1.0349043197200785
1386,0.400782902923145,-0.0601953053351157,-0.9165584238454816
1387,0.4095798706118552,-0.0496634724725504,-0.756095203423048
1388,0.4222906208002301,-0.0364859368336073,-0.5553220015075403
1389,0.4389079191398414,-0.0210021255036244,-0.3194103360980269
1390,0.459431765630689,-0.0037527445179548,-0.0565984153836066
1391,0.4819161205455832,0.0145654146007867,0.2224974307773879
1392,0.5034238384226682,0.0331648403887925,0.5058786616512432
1393,0.524924321951325,0.0512438193025299,0.7813303533277249
1394,0.5435021287149827,0.0680631089921945,1.0375893942791246
1395,0.5591427900167849,0.0830117675962525,1.2653474618353164
1396,0.5689163947433042,0.0956531228025407,1.4579514077367914
1397,0.5757600883563961,0.1057454493103253,1.61171830036856
1398,0.5806432735454417,0.1132363853276663,1.7258503544000512
1399,0.5835804190072973,0.1182345146202119,1.802001954300604
1400,0.5855336930829155,0.1209649635339888,1.843603129672548
1401,0.5865103301207246,0.1217177283018635,1.8550722690379344
1402,0.5855336930829155,0.1207976222073521,1.841053513804893
1403,0.5835804190072973,0.118483448279414,1.805794712612321
1404,0.5816199105832508,0.1150016827696921,1.7527464622520654
1405,0.5786899994698235,0.1105170544977073,1.6844185743800495
1406,0.5757600883563961,0.1051393585154364,1.6024838886488344
1407,0.5718463058567315,0.0989430730705955,1.5080771571605374
1408,0.5659792492814486,0.0919942689028622,1.4022050350532256
1409,0.560119427054594,0.0843782466774362,1.2861671650026545
1410,0.553275733441502,0.076221488476157,1.161890630588914
1411,0.5435021287149827,0.0677028403854113,1.0321003344339938
1412,0.531768015564417,0.0590511510055121,0.9002830184824907
1413,0.5200411367622795,0.0505294904553945,0.7704468244351035
1414,0.5102675320357603,0.0424089778227569,0.6467225282448679
1415,0.5024472013848591,0.0349374476997342,0.5328861428152362
1416,0.4956035077717671,0.0283091293678703,0.4318969494435453
1417,0.4916897252721025,0.0226410297452493,0.3455376679215435
1418,0.4897364511964843,0.0179600577490393,0.2742182830603477
1419,0.4868065400830569,0.0142026189835198,0.2169698693489575
1420,0.4848460316590105,0.0112260385955872,0.1716186298138494
1421,0.4838693946212014,0.0088292459766194,0.1351010485587084
1422,0.4819161205455832,0.0067789727277196,0.1038630434975178
1423,0.4809394835077741,0.0048373342497771,0.0742802000235969
1424,0.4780023380459186,0.0027870004707848,0.0430412727246817
1425,0.4740957898946821,0.0004510613073813,0.0074508559603854
1426,0.4711658787812548,-0.0022940590428564,-0.0343738537168822
1427,0.4672520962815901,-0.0055129756357518,-0.0834173326162798
1428,0.4633455481303537,-0.0092122649645545,-0.1397797803231681
1429,0.4604084026684982,-0.0133465431327763,-0.202769726864481
1430,0.4565018545172618,-0.0178280979905949,-0.2710507881355401
1431,0.451611434979788,-0.0225385894982286,-0.3428199328752069
1432,0.4477048868285516,-0.0273415923261894,-0.4159985819793023
1433,0.4428144672910778,-0.0320950027896363,-0.4884216408056075
1434,0.437924047753604,-0.036662501340952,-0.5580121419446845
1435,0.4340174996023676,-0.0409233633058582,-0.6229307217955398
1436,0.4301109514511312,-0.044779991363258,-0.6816903855822237
1437,0.4252205319136574,-0.0481626575036653,-0.7332287559292319
1438,0.4232672578380392,-0.0510311374711926,-0.7769329752529853
1439,0.4213067494139927,-0.0533732367295655,-0.8126172473499477
1440,0.4213067494139927,-0.0552006580245571,-0.8404598754935413
1441,0.4203301123761837,-0.0565431761372816,-0.8609145088564515
1442,0.4203301123761837,-0.0574424854760749,-0.8746164042949623
1443,0.4193534753383746,-0.0579471685748352,-0.8823057662869951
1444,0.4183768383005654,-0.0581099044369158,-0.8847852132026873
1445,0.4183768383005654,-0.0579873672418174,-0.8829182339974901
1446,0.4183768383005654,-0.0576424569037018,-0.8776631730472029
1447,0.4183768383005654,-0.0571477812621279,-0.8701262848770893
1448,0.4183768383005654,-0.0565888393755194,-0.8616102348861152
1449,0.4193534753383746,-0.0560652087781134,-0.8536321884180454
1450,0.4193534753383746,-0.0556882269449111,-0.8478884855141181
1451,0.4193534753383746,-0.0555741479593423,-0.8461503757619248
1452,0.4193534753383746,-0.0558324785172209,-0.8500863054136444
1453,0.4193534753383746,-0.0565500584651617,-0.8610193681444838
1454,0.4183768383005654,-0.0577723500289222,-0.8796422273538549
1455,0.4174002012627563,-0.0594842214798676,-0.9057243357154772
1456,0.4164235642249472,-0.0615931211646706,-0.937855574350508
1457,0.414470290149329,-0.0639178106212374,-0.973274590351862
1458,0.4134864187630917,-0.0661856669096231,-1.007827695042986
1459,0.4115331446874735,-0.0680409194853455,-1.036094361147761
1460,0.4115331446874735,-0.069065053385279,-1.0516980861471614
1461,0.4105565076496644,-0.0688090550065223,-1.047797689624137
1462,0.4115331446874735,-0.0668353431331747,-1.017726175243286
1463,0.4134864187630917,-0.0627653438219428,-0.9557155826788424
1464,0.4174002012627563,-0.0563270491983019,-0.857621594403546
1465,0.4242438948758483,-0.047395921378436,-0.72154674867807
1466,0.4340174996023676,-0.0360225179589204,-0.5482613420755895
1467,0.4477048868285516,-0.022441456916774,-0.3413400188819314
1468,0.466275459243781,-0.0070588167427233,-0.1069697992688514
1469,0.487783177120866,0.0095815120144801,0.1465625892634239
1470,0.5092836606495229,0.0268482811032638,0.4096394354717383
1471,0.5278614674131806,0.0440827650235029,0.6722243841932478
1472,0.5425254916771737,0.0606590185838114,0.9247805217180178
1473,0.5571822815927384,0.0760357284008094,1.159060386290019
1474,0.5698930317811133,0.0897928915435499,1.3686648046821328
1475,0.5796666365076326,0.1016496247155529,1.5493142332570635
1476,0.5884636041963428,0.111462724257362,1.698826818136905
1477,0.5953072978094348,0.1192085507001243,1.816842387891792
1478,0.6001977173469085,0.1249530382052503,1.9043655167505256
1479,0.6021509914225267,0.1288159476092568,1.9632208832622955
1480,0.6031276284603359,0.1309358384682633,1.995519583651793
1481,0.604104265498145,0.1314416470599731,2.003226093677373
1482,0.604104265498145,0.1304352807822957,1.9878930765332592
1483,0.6031276284603359,0.1279874339729322,1.950597632591361
1484,0.6011743543847177,0.1241462348529597,1.8920730444101856
1485,0.598237208922862,0.1189558294306735,1.8129919214730297
1486,0.5933540237338165,0.1124800838502943,1.7143273296565884
1487,0.5865103301207246,0.1048256191946181,1.5977037499542113
1488,0.5767367253942053,0.0961585843860995,1.4656526307391011
1489,0.5659792492814486,0.0867108987445565,1.3217074995008984
1490,0.5552290075171202,0.0767738747172513,1.1703067986310496
1491,0.5425254916771737,0.0666796832389531,1.0165114912704762
1492,0.5307913785266078,0.0567735167523506,0.865580936520499
1493,0.5200411367622795,0.0473810878883353,0.7224776986723612
1494,0.5102675320357603,0.038776958846767,0.5913850130062551
1495,0.5034238384226682,0.031158967130467,0.4753171357525354
1496,0.4995100559230035,0.0246327391078261,0.3758833924155743
1497,0.4956035077717671,0.0192082442699293,0.2932356783649952
1498,0.4926663623099116,0.0148080308505942,0.2261939369106463
1499,0.4897364511964843,0.0112847694199043,0.1725134538516941
1500,0.4868065400830569,0.008444461365281,0.1292384623678643
1501,0.4838693946212014,0.0060713120513907,0.0930811109913848
1502,0.4809394835077741,0.0039507182157676,0.0607717000358106
1503,0.4789862094321558,0.0018878080700966,0.0293411589575266
1504,0.4750724269324912,-0.0002798063449761,-0.0036846585061141
1505,0.4721425158190639,-0.0026752119925092,-0.0401811078361714
1506,0.4692053703572084,-0.0053804826681792,-0.0813986670584933
1507,0.4652988222059719,-0.0084386087000802,-0.1279923376892468
1508,0.4613850397063073,-0.0118573874198751,-0.1800809200327717
1509,0.4584551285928799,-0.0156137852544659,-0.2373134740992894
1510,0.4555252174794526,-0.0196578111200018,-0.298928334715056
1511,0.451611434979788,-0.023915672004729,-0.3638011900470596
1512,0.4486815238663607,-0.0282927116414662,-0.4304898552768279
1513,0.444767741366696,-0.03267712826639,-0.4972909164491532
1514,0.4398845561776505,-0.0369455514893345,-0.5623246997817863
1515,0.4349941366401767,-0.0409711757652084,-0.6236591934019323
1516,0.4301109514511312,-0.044634385658715,-0.6794719340963581
1517,0.4261971689514665,-0.0478348873191872,-0.7282348427095531
1518,0.4222906208002301,-0.050503570492884,-0.768894954005152
1519,0.4193534753383746,-0.0526119135163373,-0.8010177113364986
1520,0.4174002012627563,-0.0541768461961846,-0.8248610575830171
1521,0.4174002012627563,-0.055259624038381,-0.8413582828835112
1522,0.4183768383005654,-0.0559583549236152,-0.8520041609102907
1523,0.4193534753383746,-0.0563951407871846,-0.858659039241342
1524,0.4193534753383746,-0.0567000175101908,-0.8633041472148364
1525,0.4203301123761837,-0.0569946412668346,-0.867793040783596
1526,0.4193534753383746,-0.0573787509218992,-0.8736453433268784
1527,0.4183768383005654,-0.0579218097156198,-0.8819193981904783
1528,0.4164235642249472,-0.0586610462252815,-0.8931824207376537
1529,0.4134864187630917,-0.0596056372090499,-0.9075742282430904
1530,0.4115331446874735,-0.0607453298776684,-0.924938609000441
1531,0.4095798706118552,-0.0620607206461392,-0.9449799295927004
1532,0.4066499594984279,-0.0635319461912061,-0.9673955520213764
1533,0.4046894510743815,-0.0651428087878676,-0.991938687417791
1534,0.4037128140365724,-0.0668783115809135,-1.018380843389913
1535,0.4037128140365724,-0.0687150764660417,-1.0463658306635075
1536,0.4027361769987633,-0.0706059154967518,-1.0751746927227055
1537,0.4027361769987633,-0.0724615702906343,-1.1034474870315765
1538,0.4027361769987633,-0.0741339153998257,-1.128927371243601
1539,0.4027361769987633,-0.0754054094329047,-1.1482998802796085
1540,0.4017595399609542,-0.0759890944261359,-1.1571929167480308
1541,0.400782902923145,-0.0755419821005172,-1.1503807042304592
1542,0.4017595399609542,-0.0736924113236094,-1.1222006061283747
1543,0.4027361769987633,-0.0700793056717734,-1.0671512546825443
1544,0.4066499594984279,-0.0643987223251053,-0.9806017708861992
1545,0.4134864187630917,-0.0564511687958966,-0.8595126831254697
1546,0.4213067494139927,-0.0461822530321675,-0.7030552729863851
1547,0.4320642255267494,-0.033709532634603,-0.5130206504720396
1548,0.4467282497907424,-0.019329975128034,-0.2939334188511213
1549,0.4652988222059719,-0.0035051185340915,-0.0528255808400378
1550,0.4858226686968196,0.0131754661939418,0.2013201484853256
1551,0.5053771124982864,0.0300480230786081,0.4583907695068214
1552,0.524924321951325,0.0464381180259153,0.7081105906048717
1553,0.5415416202909363,0.0617242057815199,0.9410097356001134
1554,0.5552290075171202,0.0753915243290752,1.1492452799064816
1555,0.5659792492814486,0.0870683273045088,1.3271532883345554
1556,0.5728229428945406,0.0965397434595828,1.4714599781611968
1557,0.5757600883563961,0.103738726416283,1.5811438294027322
1558,0.5767367253942053,0.1087178135837453,1.657005303096914
1559,0.5767367253942053,0.1116088887009118,1.7010537825816807
1560,0.5767367253942053,0.1125800820707298,1.7158509045838573
1561,0.5767367253942053,0.11179889048169,1.703948653591079
1562,0.5767367253942053,0.1094085665669968,1.6675296296462758
1563,0.5767367253942053,0.1055213170349392,1.6083034164467978
1564,0.5747834513185871,0.100227712061336,1.5276499430397312
1565,0.5718463058567315,0.09361791823348,1.4269429893891434
1566,0.5650026122436396,0.0858077890898183,1.307947702371096
1567,0.5552290075171202,0.0769620360255514,1.173173628164212
1568,0.5435021287149827,0.0673077682458014,1.0260810072524622
1569,0.5307913785266078,0.0571342639572191,0.8710772882958243
1570,0.517103991300424,0.0467781781443534,0.7132917535091717
1571,0.5063537495360956,0.0365966396193111,0.5581656247618705
1572,0.4965801448095762,0.0269331139118981,0.4109319498753162
1573,0.4868065400830569,0.0180821057942963,0.2760778095685789
1574,0.4780023380459186,0.0102587188888367,0.156880527021221
1575,0.4721425158190639,0.0035780142583465,0.0550931749345864
1576,0.4682287333193992,-0.0019526851973784,-0.0291726748405923
1577,0.466275459243781,-0.0064276262146037,-0.0973529675013999
1578,0.4633455481303537,-0.0100239887408842,-0.1521472203445812
1579,0.4613850397063073,-0.0129741407653507,-0.1970957967945829
1580,0.459431765630689,-0.0155333632971507,-0.2360881635164239
1581,0.4565018545172618,-0.0179479223514303,-0.272876434542544
1582,0.4535647090554062,-0.0204278049951287,-0.3106599771101401
1583,0.4496581609041697,-0.0231272401536221,-0.3517886262736711
1584,0.4457443784045051,-0.0261345869388277,-0.3976086232654959
1585,0.4418378302532686,-0.0294716094837275,-0.4484515668598798
1586,0.437924047753604,-0.0331008458716314,-0.5037466865296286
1587,0.4340174996023676,-0.0369388993040731,-0.5622233469513892
1588,0.4301109514511312,-0.0408730843882129,-0.622164671180229
1589,0.4261971689514665,-0.0447788960634318,-0.6816736975717195
1590,0.4232672578380392,-0.0485361239917654,-0.7389188989634426
1591,0.4193534753383746,-0.0520419903147787,-0.7923343498068435
1592,0.4174002012627563,-0.055220327556903,-0.8407595608897696
1593,0.414470290149329,-0.0580264302730934,-0.8835133991391901
1594,0.4115331446874735,-0.0604477225126833,-0.9204042571141056
1595,0.4095798706118552,-0.0625007329021167,-0.9516839653043242
1596,0.407626596536237,-0.0642250659341619,-0.9779559385698928
1597,0.4056660881121906,-0.0656751624759644,-1.0000496390736422
1598,0.4046894510743815,-0.0669107278150255,-1.018874737794378
1599,0.4037128140365724,-0.0679868140021906,-1.0352700089022553
1600,0.4037128140365724,-0.0689446748397663,-1.0498639961711045
1601,0.4027361769987633,-0.0698046231260627,-1.062966185810512
1602,0.4027361769987633,-0.0705621279952311,-1.074507545455943
1603,0.4027361769987633,-0.0711882073347415,-1.0840465030494382
1604,0.4027361769987633,-0.0716347446245325,-1.090849954309404
1605,0.4017595399609542,-0.0718446849616962,-1.0940486095707878
1606,0.400782902923145,-0.071766179619549,-1.092852500575735
1607,0.3998062658853359,-0.0713687642724111,-1.086797472236488
1608,0.3988296288475269,-0.0706587860402188,-1.0759802294019247
1609,0.3988296288475269,-0.0696908130546959,-1.0612321732405885
1610,0.400782902923145,-0.0685719043804414,-1.0441844578455168
1611,0.4027361769987633,-0.0674564851921579,-1.0271899083299112
1612,0.4046894510743815,-0.0665310506053136,-1.0130899680789445
1613,0.4056660881121906,-0.0659897000514393,-1.0048419399925037
1614,0.4066499594984279,-0.066003189740584,-1.0050474691716031
1615,0.4066499594984279,-0.066685465314787,-1.0154426337436997
1616,0.4056660881121906,-0.0680623275323802,-1.0364205345892663
1617,0.4037128140365724,-0.0700469343099569,-1.0666580439532896
1618,0.4017595399609542,-0.0724262706834123,-1.1029096614955654
1619,0.3988296288475269,-0.0748616070525332,-1.1400144961146206
1620,0.3968691204234804,-0.076904454406147,-1.1711393600836897
1621,0.3958924833856713,-0.0780277815697433,-1.1882543956725429
1622,0.3958924833856713,-0.0776704540922127,-1.182810146932726
1623,0.3978529918097178,-0.0752911396123283,-1.1465588629613448
1624,0.400782902923145,-0.0704264335690906,-1.0724401024100825
1625,0.4056660881121906,-0.0627468387633547,-0.955433639228552
1626,0.414470290149329,-0.0521036908367233,-0.7932744202183449
1627,0.4271738059892756,-0.0385604287463225,-0.5869290026248647
1628,0.4437911043288869,-0.022402994992878,-0.3407540122245402
1629,0.4643221851681628,-0.0041266373516418,-0.0622950542278801
1630,0.4868065400830569,0.0156003266040815,0.2382653711795551
1631,0.5102675320357603,0.0359917174676364,0.5489490185140055
1632,0.5337212896400352,0.0562106187721287,0.857004611406497
1633,0.553275733441502,0.0754395542261809,1.1499770643989542
1634,0.5689163947433042,0.0929446584087757,1.4166851889603982
1635,0.5826037819694881,0.1081262510060314,1.6479922435905512
1636,0.5933540237338165,0.1205509697315292,1.8372955116496943
1637,0.6001977173469085,0.1299639338607764,1.9807116252179784
1638,0.605080902535954,0.1362825516222302,2.0769822143786865
1639,0.6070414109600005,0.1395759896531436,2.1271611034285227
1640,0.6080180479978096,0.1400356793092831,2.134164944410581
1641,0.6060575395737632,0.1379424630614719,2.102272658941617
1642,0.6021509914225267,0.1336352258587322,2.036647505020728
1643,0.597260571885053,0.1274844248988045,1.9429337760727927
1644,0.590416878271961,0.1198722035126985,1.826953815687668
1645,0.5826037819694881,0.1111790926780755,1.6945054016066845
1646,0.5747834513185871,0.1017759383722693,1.5512387507085408
1647,0.5659792492814486,0.0920188434893821,1.4025794539549483
1648,0.5552290075171202,0.0822447039317352,1.2536604641888784
1649,0.5444787657527919,0.0727653815564396,1.1092333150295948
1650,0.5337212896400352,0.063859578612667,0.9735443196330936
1651,0.524924321951325,0.055762763809625,0.85018108405819
1652,0.517103991300424,0.0486566487042237,0.7419121692942453
1653,0.5092836606495229,0.0426603903052603,0.6505530539589902
1654,0.5044004754604773,0.0378257483578535,0.5768923505853403
1655,0.5024472013848591,0.0341378620538474,0.5207036395969601
1656,0.5014633299986218,0.0315222480639829,0.4808520914692397
1657,0.5004866929608127,0.02985730384891,0.4554849674310383
1658,0.5004866929608127,0.0289904017117111,0.4422768287773697
1659,0.4995100559230035,0.0287549497646383,0.4386894781067827
1660,0.4995100559230035,0.0289857552773535,0.4422060356086752
1661,0.4995100559230035,0.0295305865583599,0.4505070961247336
1662,0.4995100559230035,0.030256767099191,0.4615711976643663
1663,0.4995100559230035,0.0310526929821956,0.4736979406606825
1664,0.4995100559230035,0.0318251292226577,0.4854667949838565
1665,0.4995100559230035,0.0324938614085321,0.4956556122149916
1666,0.4995100559230035,0.0329856548050222,0.5031485864401889
1667,0.4995100559230035,0.0332294539785505,0.5068631156233979
1668,0.4995100559230035,0.0331543525337427,0.5057188684776734
1669,0.4995100559230035,0.0326911481662269,0.4986614772813591
1670,0.4995100559230035,0.0317774023674342,0.4847396276436853
1671,0.4995100559230035,0.0303650214977667,0.4632205638902674
1672,0.4975567818473854,0.0284286697282095,0.4337182688131934
1673,0.494626870733958,0.0259730074940495,0.3963037488996023
1674,0.4907130882342934,0.0230369299186808,0.351569611043279
1675,0.4868065400830569,0.0196936070641763,0.3006306758031842
1676,0.4819161205455832,0.0160459955230535,0.2450555919240014
1677,0.4780023380459186,0.0122183377920455,0.1867373206214348
1678,0.4740957898946821,0.0083447898280462,0.1277198647925078
1679,0.4711658787812548,0.0045566304638868,0.0700033914133095
1680,0.4672520962815901,0.0009695417952376,0.015350435254255
1681,0.4633455481303537,-0.0023276715697214,-0.034885974862145
1682,0.4584551285928799,-0.0052817089713272,-0.079893748997532
1683,0.4555252174794526,-0.0078796877097811,-0.1194766060748691
1684,0.4535647090554062,-0.0101495507959763,-0.1540602863783721
1685,0.4525880720175971,-0.0121556784970182,-0.1846256889714994
1686,0.451611434979788,-0.0139901636604327,-0.2125759423585404
1687,0.4506347979419788,-0.0157610232031487,-0.2395567944901792
1688,0.4496581609041697,-0.0175792102195323,-0.2672587289764529
1689,0.4467282497907424,-0.0195464328889206,-0.2972313737133515
1690,0.4428144672910778,-0.0217453975708686,-0.330734844482885
1691,0.4398845561776505,-0.0242332727448542,-0.3686401614050444
1692,0.4349941366401767,-0.027038174639482,-0.4113757039126316
1693,0.4310875884889403,-0.030157630359122,-0.4589037949173621
1694,0.4261971689514665,-0.0335575483977313,-0.5107050155374439
1695,0.4232672578380392,-0.0371703592358126,-0.5657498751948911
1696,0.4213067494139927,-0.0408916827944588,-0.6224480368773385
1697,0.4193534753383746,-0.0445759825111998,-0.6785821025489542
1698,0.4174002012627563,-0.0480328509172048,-0.7312510201288915
1699,0.414470290149329,-0.0510264075058902,-0.7768609094051112
1700,0.4125097817252826,-0.0532804158342235,-0.8112030262942743
1701,0.4095798706118552,-0.0544910184338978,-0.8296477922082857
1702,0.4086032335740461,-0.0543475952198866,-0.8274625931927017
1703,0.4086032335740461,-0.0525605186431018,-0.8002346579990416
1704,0.4115331446874735,-0.0488929255764656,-0.7443551351893636
1705,0.4154469271871381,-0.0431924275556119,-0.657502231010718
1706,0.4222906208002301,-0.0354181842186993,-0.5390537008766395
1707,0.4330408625645585,-0.025659062883925,-0.3903635290607407
1708,0.4437911043288869,-0.0141396581596859,-0.2148536435999713
1709,0.4565018545172618,-0.0012125835040335,-0.0178964703371634
1710,0.473119152856873,0.0126625929979661,0.1935060020049796
1711,0.4897364511964843,0.0269514170122997,0.4112108162865555
1712,0.5044004754604773,0.041083591393969,0.6265289135680306
1713,0.5180806283382331,0.0544939436763258,0.8308493146137954
1714,0.5298147414887988,0.0666601920666118,1.016214523370918
1715,0.538611709177509,0.0771333028498004,1.1757830529935975
1716,0.545455402790601,0.0855578878653842,1.3041402022157589
1717,0.5503385879796465,0.0916820524031404,1.3974480980919055
1718,0.5522990964036929,0.0953579212136104,1.4534537103035228
1719,0.5522990964036929,0.0965353797969664,1.4713934933085218
1720,0.5503385879796465,0.0952521505130816,1.4518421857517505
1721,0.5483853139040282,0.0916231151287932,1.3965501285771893
1722,0.5435021287149827,0.0858308893803374,1.3082996588688642
1723,0.5376350721396999,0.0781183129208376,1.1907906865375142
1724,0.5298147414887988,0.0687821429405857,1.0485446101904987
1725,0.5190644997244704,0.0581662558933726,0.8868007384954354
1726,0.5073303865739046,0.0466523628371839,0.7113748289215613
1727,0.494626870733958,0.0346466997547199,0.5284563011915594
1728,0.4809394835077741,0.0225622044790103,0.3443366845564994
1729,0.4672520962815901,0.0107970184220892,0.1650820696952043
1730,0.4555252174794526,-0.0002886143874291,-0.0038188580206782
1731,0.444767741366696,-0.0103941662482854,-0.1577872524017437
1732,0.4349941366401767,-0.0192963055866118,-0.2934204290309015
1733,0.4281504430270847,-0.0268594963009144,-0.4086533570998373
1734,0.4242438948758483,-0.0330382610204346,-0.5027931424595937
1735,0.4203301123761837,-0.0378710664261131,-0.5764258642459921
1736,0.4174002012627563,-0.041467195235333,-0.6312165561712685
1737,0.4154469271871381,-0.0439890027853151,-0.6696388674665856
1738,0.4125097817252826,-0.0456323622231174,-0.6946771253978008
1739,0.4105565076496644,-0.0466078540352035,-0.7095397385540946
1740,0.4095798706118552,-0.0471245398650429,-0.7174119744017943
1741,0.4086032335740461,-0.047377273749438,-0.721262633022105
1742,0.4086032335740461,-0.0475377254606708,-0.7237072785688664
1743,0.4086032335740461,-0.0477487810499136,-0.7269229258336868
1744,0.4086032335740461,-0.0481217593282447,-0.732605630493894
1745,0.407626596536237,-0.0487358543954392,-0.741961995469815
1746,0.4066499594984279,-0.0496392693040454,-0.7557264434537797
1747,0.4056660881121906,-0.0508515654358655,-0.7741970120581251
1748,0.4037128140365724,-0.0523668000374563,-0.7972831573701141
1749,0.4017595399609542,-0.0541570828425621,-0.824559942723904
1750,0.3998062658853359,-0.0561762740195982,-0.855324380703872
1751,0.3988296288475269,-0.0583636799583695,-0.8886517422264801
1752,0.3968691204234804,-0.0606477681334131,-0.923452156273976
1753,0.3939392093100531,-0.0629500569571691,-0.9585298757766836
1754,0.3919859352344348,-0.0651893491285172,-0.9926477769977003
1755,0.3890487897725793,-0.0672863243556355,-1.0245973343520989
1756,0.3870955156969611,-0.0691682494557763,-1.0532703835832322
1757,0.3841656045835338,-0.0707733244693056,-1.0777253392449344
1758,0.3831889675457247,-0.0720540802868698,-1.097238961018368
1759,0.3831889675457247,-0.0729793559921486,-1.1113364805465604
1760,0.3841656045835338,-0.0735347279735818,-1.1197981393894312
1761,0.3841656045835338,-0.0737217418053315,-1.1226474859464544
1762,0.3851422416213429,-0.0735567058178789,-1.1201329942736546
1763,0.3851422416213429,-0.07306993075968,-1.1127164795530735
1764,0.386118878659152,-0.0723060551893788,-1.1010780557751731
1765,0.386118878659152,-0.0713255510595376,-1.0861390748432735
1766,0.3870955156969611,-0.0702068243195917,-1.0690941314030409
1767,0.3870955156969611,-0.0690476998389889,-1.051433687161743
1768,0.3880721527347702,-0.0679646770663851,-1.0349327300965632
1769,0.3880721527347702,-0.0670882884094987,-1.0215800546353395
1770,0.3880721527347702,-0.0665532543489977,-1.013428264770838
1771,0.3890487897725793,-0.0664829118459084,-1.0123565249582551
1772,0.3900326611588167,-0.0669685313177467,-1.019755433141463
1773,0.3900326611588167,-0.0680454781535725,-1.0361638171098986
1774,0.3900326611588167,-0.069669456004885,-1.0609067767938254
1775,0.3900326611588167,-0.0716969695753425,-1.0917980149298008
1776,0.3880721527347702,-0.0738743867447837,-1.1249731873590498
1777,0.386118878659152,-0.0758394092675295,-1.1549123106168038
1778,0.3841656045835338,-0.0771373837947287,-1.1746882770016271
1779,0.3841656045835338,-0.0772528871679993,-1.1764480887539133
1780,0.3851422416213429,-0.0756547342448746,-1.152098598202878
1781,0.3880721527347702,-0.0718503478554659,-1.0941348895358285
1782,0.392962572272244,-0.0654435961427802,-0.9965214896955576
1783,0.3998062658853359,-0.0561889702677543,-0.8555178209998769
1784,0.4095798706118552,-0.0440345595604915,-0.6703329714228732
1785,0.4242438948758483,-0.0291469025558691,-0.4435043254805724
1786,0.4428144672910778,-0.0119126116391815,-0.1809223173651123
1787,0.4652988222059719,0.0070853569918923,0.1085311203989903
1788,0.487783177120866,0.0271151678159436,0.4137057268726187
1789,0.5112441690735693,0.0473618627832282,0.722184784578613
1790,0.5337212896400352,0.0670028853234277,1.021435804825278
1791,0.553275733441502,0.0852831561237792,1.2999543837940766
1792,0.5698930317811133,0.1015795228334434,1.5482461595506392
1793,0.5826037819694881,0.1154461609410416,1.759518540741435
1794,0.5923773866960075,0.1266356463340025,1.9300017685380209
1795,0.598237208922862,0.135094366813835,2.0588790063900944
1796,0.6011743543847177,0.1409349719943923,2.147866586113221
1797,0.6031276284603359,0.1443919704462967,2.200537485075136
1798,0.6031276284603359,0.1457687884290207,2.2215147119573326
1799,0.604104265498145,0.1453852506910314,2.215671123154281
1800,0.604104265498145,0.1435334891820997,2.187457647014373
1801,0.6031276284603359,0.1404480338973893,2.140447587330094
1802,0.6001977173469085,0.1362928650227494,2.0771393495594674
1803,0.5953072978094348,0.1311651669805474,1.9990136375449756
1804,0.5914007496581983,0.1251129497105703,1.9068019317089748
1805,0.5855336930829155,0.1181618632314902,1.800895036259407
1806,0.5786899994698235,0.1103455017902775,1.6818047938286869
1807,0.5708696688189224,0.1017332822714698,1.5505888414862552
1808,0.5630493381680214,0.0924505823595753,1.4091574361919237
1809,0.553275733441502,0.0826871771193175,1.2604019947046543
1810,0.5425254916771737,0.0726919804363126,1.1081149740654062
1811,0.5307913785266078,0.062754470054886,0.9567068630942384
1812,0.5180806283382331,0.0531756422857097,0.8107636477231317
1813,0.5073303865739046,0.0442334694448008,0.6745205198316432
1814,0.4985334188851945,0.03614911958303,0.5513472003563261
1815,0.4916897252721025,0.0290602396281252,0.4433408806970723
1816,0.4887598141586752,0.0230062739683307,0.3511025363581336
1817,0.4868065400830569,0.017928342727892,0.2737350723509231
1818,0.4858226686968196,0.0136832243734304,0.2090563624700894
1819,0.4838693946212014,0.0100682324463695,0.1539782716964385
1820,0.4809394835077741,0.0068519337000268,0.1049746783605414
1821,0.4780023380459186,0.0038051097932864,0.0585532071393831
1822,0.473119152856873,0.0007270897683437,0.0116564312246596
1823,0.4692053703572084,-0.0025357929446594,-0.0380569163779375
1824,0.4643221851681628,-0.0060808682197239,-0.0920697556149472
1825,0.459431765630689,-0.009948319653541,-0.1509943245856032
1826,0.4555252174794526,-0.0141269740681619,-0.214660388522661
1827,0.4525880720175971,-0.0185641698248857,-0.2822655936241813
1828,0.4496581609041697,-0.0231773028875167,-0.3525513831089445
1829,0.4457443784045051,-0.0278652768539336,-0.4239774501311054
1830,0.4418378302532686,-0.0325188789460351,-0.4948798265747527
1831,0.437924047753604,-0.0370297466298306,-0.5636074986605975
1832,0.4330408625645585,-0.0412979156496214,-0.6286374089487933
1833,0.4291270800648938,-0.0452379680894754,-0.6886681283290326
1834,0.4252205319136574,-0.0487836603230805,-0.7426903675589573
1835,0.4222906208002301,-0.0518907731771319,-0.790030402411693
1836,0.4203301123761837,-0.0545379298482791,-0.8303625354751438
1837,0.4193534753383746,-0.0567253278846014,-0.8636897765958779
1838,0.4183768383005654,-0.0584716796748398,-0.890297228110626
1839,0.4174002012627563,-0.059810016317886,-0.910688152516184
1840,0.4164235642249472,-0.0607832299850834,-0.9255160558104624
1841,0.4164235642249472,-0.0614402246219742,-0.9355260395057494
1842,0.4164235642249472,-0.0618333339320739,-0.941515460976807
1843,0.4164235642249472,-0.0620173304361632,-0.9443188354680204
1844,0.4164235642249472,-0.0620499622914203,-0.9448160150806522
1845,0.4164235642249472,-0.0619935600767634,-0.9439566697871112
1846,0.4174002012627563,-0.0619169001886205,-0.9427886781669296
1847,0.4164235642249472,-0.0618962537845623,-0.9424741091333572
1848,0.4164235642249472,-0.0620144392279417,-0.9442747849605552
1849,0.4154469271871381,-0.062356765129232,-0.9494904693786304
1850,0.414470290149329,-0.0630030425306222,-0.959337165055118
1851,0.414470290149329,-0.0640154086172434,-0.9747615954107408
1852,0.4134864187630917,-0.0654225493746806,-0.99620082070728
1853,0.4134864187630917,-0.0672019494993581,-1.023311797319976
1854,0.4134864187630917,-0.0692628436007842,-1.0547116219070023
1855,0.4134864187630917,-0.0714333307533703,-1.087781208458023
1856,0.4125097817252826,-0.0734553669120644,-1.118588992636591
1857,0.4115331446874735,-0.0749908419217692,-1.141983521219661
1858,0.4095798706118552,-0.0756405974696571,-1.151883210007168
1859,0.4086032335740461,-0.0749761897649122,-1.141760280658774
1860,0.4095798706118552,-0.0725818178897076,-1.1052795819050103
1861,0.4125097817252826,-0.0681016401253189,-1.037019502057552
1862,0.4193534753383746,-0.06128618721349,-0.9331791224065656
1863,0.4271738059892756,-0.05203108818488,-0.7921682447332217
1864,0.437924047753604,-0.0404019504643113,-0.6149864651009982
1865,0.451611434979788,-0.0266408910755519,-0.405322683425028
1866,0.4701892417434457,-0.0111527115696017,-0.1693444643973332
1867,0.4907130882342934,0.0055282266581495,0.0848066508569462
1868,0.5112441690735693,0.0227861844857209,0.3477492485096143
1869,0.531768015564417,0.0399803932780544,0.6097205645604393
1870,0.5483853139040282,0.0565012645234239,0.8614328960045841
1871,0.5610960640924031,0.071818421404023,1.094805410822285
1872,0.5728229428945406,0.0855144203783791,1.3034779306966864
1873,0.5835804190072973,0.0973010435386729,1.4830591617024456
1874,0.5914007496581983,0.1070183284147804,1.6311119123803195
1875,0.598237208922862,0.1146192852994466,1.7469202465916285
1876,0.6031276284603359,0.1201450715241523,1.831111238278732
1877,0.6080180479978096,0.1236961123128069,1.8852149682025412
1878,0.6099713220734279,0.1254043618671953,1.9112418932743076
1879,0.6109479591112369,0.1254108206074756,1.9113402987730248
1880,0.6099713220734279,0.1238508985748389,1.8875732948496615
1881,0.6070414109600005,0.1208485742215618,1.8418298197331948
1882,0.6031276284603359,0.1165187825471173,1.775861025421131
1883,0.5992210803090994,0.1109762051838835,1.691414203604748
1884,0.5933540237338165,0.1043476911880586,1.5904220290929545
1885,0.5865103301207246,0.0967849778557074,1.4751963744251724
1886,0.5786899994698235,0.0884743016991853,1.3485747429042705
1887,0.5708696688189224,0.0796399631961519,1.2139745811852822
1888,0.5610960640924031,0.0705399179343396,1.0753261058671282
1889,0.5503385879796465,0.0614528984730271,0.9368760919112128
1890,0.5405649832531272,0.0526582313346617,0.8028803639138999
1891,0.5307913785266078,0.0444111160298271,0.6772271468264268
1892,0.5219944108378977,0.0369173298582757,0.5630516677872215
1893,0.5141740801869966,0.0303118104674531,0.4624098395465052
1894,0.5092836606495229,0.0246451868504572,0.376073046476329
1895,0.5053771124982864,0.0198810874648492,0.303487131013843
1896,0.5034238384226682,0.0159051368621356,0.242909466491683
1897,0.5034238384226682,0.0125443245005416,0.1917040607646555
1898,0.5024472013848591,0.0095933860670318,0.1467435025704213
1899,0.4995100559230035,0.0068434915357274,0.1048460533729923
1900,0.4956035077717671,0.0041082627818561,0.0631720522598259
1901,0.4916897252721025,0.0012430219804956,0.019517184937893
1902,0.4868065400830569,-0.0018450975950412,-0.0275334679357886
1903,0.4828927575833923,-0.0051965023815032,-0.0785955396561199
1904,0.4780023380459186,-0.0088064449749818,-0.1335966986802667
1905,0.473119152856873,-0.0126375134826172,-0.1919669366451337
1906,0.4692053703572084,-0.0166339769950574,-0.2528571362785054
1907,0.4652988222059719,-0.0207348250715982,-0.315337741260742
1908,0.4623689110925446,-0.024883124226802,-0.3785413118458459
1909,0.459431765630689,-0.0290305180253569,-0.441731088398571
1910,0.4565018545172618,-0.0331370251574204,-0.5042979148662385
1911,0.4525880720175971,-0.0371674174127268,-0.5657050535183206
1912,0.4486815238663607,-0.0410861275619336,-0.6254106013227163
1913,0.444767741366696,-0.0448527329566897,-0.6827986779842233
1914,0.4408611932154596,-0.0484196398205039,-0.7371441437529516
1915,0.4359707736779858,-0.0517328272666981,-0.7876239352970423
1916,0.4320642255267494,-0.0547356103026932,-0.8333743989127612
1917,0.4291270800648938,-0.0573745606582984,-0.8735815003851438
1918,0.4261971689514665,-0.0596061785270867,-0.907582475775746
1919,0.4242438948758483,-0.0614027631918651,-0.934955276392113
1920,0.4232672578380392,-0.0627561946529585,-0.9555761857534856
1921,0.4232672578380392,-0.0636789163141801,-0.9696347918143012
1922,0.4232672578380392,-0.06420214324106,-0.9776066879499972
1923,0.4232672578380392,-0.0643720181998896,-0.9801949062894484
1924,0.4242438948758483,-0.0642449064620458,-0.9782582292576274
1925,0.4242438948758483,-0.0638831314381892,-0.9727462176112244
1926,0.4242438948758483,-0.0633521770250619,-0.964656585337364
1927,0.4242438948758483,-0.0627197793508637,-0.955021361467624
1928,0.4232672578380392,-0.0620565346997355,-0.944916152427869
