window_id,caseid,ecg,ppg,arrhythmia_mask,ecg_normalized,ppg_normalized
1001_w0000,1001,0.6228718757629395,68.36300659179688,0,4.639511504810942,3.0985491004953385
1001_w0000,1001,0.6031227111816406,67.17807006835938,0,4.497142784313919,2.9806111421266714
1001_w0000,1001,0.3167600631713867,65.99310302734375,0,2.432798055830318,2.8626701463118733
1001_w0000,1001,0.0995197296142578,64.80816650390625,0,0.8667455678095339,2.7447321879432063
1001_w0000,1001,0.030397891998291,63.62319946289063,0,0.36845676479318834,2.6267911921284086
1001_w0000,1001,0.030397891998291,62.438262939453125,0,0.36845676479318834,2.5088532337597407
1001_w0000,1001,0.0205230712890625,60.46334838867188,0,0.2972706858214412,2.3122879448478755
1001_w0000,1001,0.0007739067077636,59.278411865234375,0,0.1549019653244175,2.1943499864792075
1001_w0000,1001,-0.0189752578735351,57.30348205566406,0,0.012533244827395226,1.9977831788442764
1001_w0000,1001,-0.0189752578735351,55.32856750488281,0,0.012533244827395226,1.8012178899324105
1001_w0000,1001,-0.0189752578735351,54.14361572265625,0,0.012533244827395226,1.6832784128406777
1001_w0000,1001,-0.0189752578735351,51.77372741699219,0,0.012533244827395226,1.4474009773802778
1001_w0000,1001,-0.0288496017456054,49.79881286621094,0,-0.05864939669788069,1.250835688468412
1001_w0000,1001,-0.0189752578735351,47.82389831542969,0,0.012533244827395226,1.0542703995565461
1001_w0000,1001,-0.0189752578735351,46.638946533203125,0,0.012533244827395226,0.9363309224648134
1001_w0000,1001,-0.0189752578735351,44.66403198242188,0,0.012533244827395226,0.7397656335529482
1001_w0000,1001,-0.0189752578735351,43.0841064453125,0,0.012533244827395226,0.582514009912681
1001_w0000,1001,-0.0189752578735351,41.89915466308594,0,0.012533244827395226,0.46457453282094835
1001_w0000,1001,-0.0189752578735351,41.10919189453125,0,0.012533244827395226,0.38594872100081506
1001_w0000,1001,-0.0189752578735351,40.31922912597656,0,0.012533244827395226,0.3073229091806818
1001_w0000,1001,-0.0091004371643066,39.52925109863281,0,0.0837193237991423,0.22869557863748305
1001_w0000,1001,-0.0189752578735351,39.13427734375,0,0.012533244827395226,0.18938343208894912
1001_w0000,1001,-0.0189752578735351,38.739288330078125,0,0.012533244827395226,0.15006976681734976
1001_w0000,1001,-0.0288496017456054,37.94932556152344,0,-0.05864939669788069,0.0714439549972165
1001_w0000,1001,-0.0288496017456054,37.55433654785156,0,-0.05864939669788069,0.032130289725617135
1001_w0000,1001,-0.0189752578735351,37.15936279296875,0,0.012533244827395226,-0.007181856822916791
1001_w0000,1001,-0.0189752578735351,36.76437377929688,0,0.012533244827395226,-0.046495522094515435
1001_w0000,1001,-0.0091004371643066,36.36940002441406,0,0.0837193237991423,-0.08580766864305008
1001_w0000,1001,0.0106487274169921,35.97441101074219,0,0.22608804429616464,-0.1251213339146494
1001_w0000,1001,0.0205230712890625,35.579437255859375,0,0.2972706858214412,-0.16443348046318335
1001_w0000,1001,0.0205230712890625,35.1844482421875,0,0.2972706858214412,-0.2037471457347827
1001_w0000,1001,0.0205230712890625,34.789459228515625,0,0.2972706858214412,-0.24306081100638205
1001_w0000,1001,0.030397891998291,34.39448547363281,0,0.36845676479318834,-0.282372957554916
1001_w0000,1001,0.030397891998291,33.604522705078125,0,0.36845676479318834,-0.36099876937504927
1001_w0000,1001,0.030397891998291,33.20953369140625,0,0.36845676479318834,-0.4003124346466486
1001_w0000,1001,0.030397891998291,32.814544677734375,0,0.36845676479318834,-0.43962609991824797
1001_w0000,1001,0.0402722358703613,32.41957092285156,0,0.43963940631846427,-0.4789382464667819
1001_w0000,1001,0.030397891998291,32.41957092285156,0,0.36845676479318834,-0.4789382464667819
1001_w0000,1001,0.0205230712890625,32.02458190917969,0,0.2972706858214412,-0.5182519117383813
1001_w0000,1001,-0.0189752578735351,31.629608154296875,0,0.012533244827395226,-0.5575640582869152
1001_w0000,1001,-0.0584735870361328,31.234619140625,0,-0.2722041961666515,-0.5968777235585145
1001_w0000,1001,-0.0782227516174316,31.629608154296875,0,-0.4145729166636745,-0.5575640582869152
1001_w0000,1001,-0.0979714393615722,30.839630126953125,0,-0.5569381997142263,-0.636191388830114
1001_w0000,1001,-0.1275954246520996,30.839630126953125,0,-0.7704929991829972,-0.636191388830114
1001_w0000,1001,-0.1275954246520996,30.444656372070312,0,-0.7704929991829972,-0.6755035353786478
1001_w0000,1001,-0.1275954246520996,30.444656372070312,0,-0.7704929991829972,-0.6755035353786478
1001_w0000,1001,-0.1374697685241699,30.444656372070312,0,-0.841675640708273,-0.6755035353786478
1001_w0000,1001,-0.1374697685241699,30.444656372070312,0,-0.841675640708273,-0.6755035353786478
1001_w0000,1001,-0.1473445892333984,30.04966735839844,0,-0.9128617196800203,-0.7148172006502468
1001_w0000,1001,-0.1473445892333984,30.04966735839844,0,-0.9128617196800203,-0.7148172006502468
1001_w0000,1001,-0.1473445892333984,29.654693603515625,0,-0.9128617196800203,-0.7541293471987811
1001_w0000,1001,-0.1473445892333984,29.654693603515625,0,-0.9128617196800203,-0.7541293471987811
1001_w0000,1001,-0.1473445892333984,29.654693603515625,0,-0.9128617196800203,-0.7541293471987811
1001_w0000,1001,-0.1572189331054687,29.654693603515625,0,-0.984044361205296,-0.7541293471987811
1001_w0000,1001,-0.1572189331054687,29.654693603515625,0,-0.984044361205296,-0.7541293471987811
1001_w0000,1001,-0.1670937538146972,29.654693603515625,0,-1.0552304401770431,-0.7541293471987811
1001_w0000,1001,-0.1572189331054687,29.654693603515625,0,-0.984044361205296,-0.7541293471987811
1001_w0000,1001,-0.1572189331054687,29.654693603515625,0,-0.984044361205296,-0.7541293471987811
1001_w0000,1001,-0.1572189331054687,29.25970458984375,0,-0.984044361205296,-0.7934430124703805
1001_w0000,1001,-0.1670937538146972,29.25970458984375,0,-1.0552304401770431,-0.7934430124703805
1001_w0000,1001,-0.1670937538146972,29.25970458984375,0,-1.0552304401770431,-0.7934430124703805
1001_w0000,1001,-0.1572189331054687,29.25970458984375,0,-0.984044361205296,-0.7934430124703805
1001_w0000,1001,-0.1572189331054687,29.25970458984375,0,-0.984044361205296,-0.7934430124703805
1001_w0000,1001,-0.1572189331054687,29.25970458984375,0,-0.984044361205296,-0.7934430124703805
1001_w0000,1001,-0.1670937538146972,29.25970458984375,0,-1.0552304401770431,-0.7934430124703805
1001_w0000,1001,-0.1572189331054687,29.25970458984375,0,-0.984044361205296,-0.7934430124703805
1001_w0000,1001,-0.1572189331054687,29.25970458984375,0,-0.984044361205296,-0.7934430124703805
1001_w0000,1001,-0.1572189331054687,29.25970458984375,0,-0.984044361205296,-0.7934430124703805
1001_w0000,1001,-0.1473445892333984,29.25970458984375,0,-0.9128617196800203,-0.7934430124703805
1001_w0000,1001,-0.1473445892333984,29.654693603515625,0,-0.9128617196800203,-0.7541293471987811
1001_w0000,1001,-0.1473445892333984,29.654693603515625,0,-0.9128617196800203,-0.7541293471987811
1001_w0000,1001,-0.1374697685241699,29.654693603515625,0,-0.841675640708273,-0.7541293471987811
1001_w0000,1001,-0.1374697685241699,29.654693603515625,0,-0.841675640708273,-0.7541293471987811
1001_w0000,1001,-0.1374697685241699,29.654693603515625,0,-0.841675640708273,-0.7541293471987811
1001_w0000,1001,-0.1374697685241699,29.654693603515625,0,-0.841675640708273,-0.7541293471987811
1001_w0000,1001,-0.1374697685241699,29.654693603515625,0,-0.841675640708273,-0.7541293471987811
1001_w0000,1001,-0.1275954246520996,29.654693603515625,0,-0.7704929991829972,-0.7541293471987811
1001_w0000,1001,-0.1374697685241699,29.654693603515625,0,-0.841675640708273,-0.7541293471987811
1001_w0000,1001,-0.1275954246520996,30.04966735839844,0,-0.7704929991829972,-0.7148172006502468
1001_w0000,1001,-0.1078462600708007,30.04966735839844,0,-0.6281242786859734,-0.7148172006502468
1001_w0000,1001,-0.1078462600708007,30.04966735839844,0,-0.6281242786859734,-0.7148172006502468
1001_w0000,1001,-0.0979714393615722,30.04966735839844,0,-0.5569381997142263,-0.7148172006502468
1001_w0000,1001,-0.0979714393615722,30.04966735839844,0,-0.5569381997142263,-0.7148172006502468
1001_w0000,1001,-0.0683479309082031,29.654693603515625,0,-0.3433868376919274,-0.7541293471987811
1001_w0000,1001,-0.0387244224548339,29.654693603515625,0,-0.12983547566962778,-0.7541293471987811
1001_w0000,1001,-0.0288496017456054,30.04966735839844,0,-0.05864939669788069,-0.7148172006502468
1001_w0000,1001,-0.0288496017456054,30.04966735839844,0,-0.05864939669788069,-0.7148172006502468
1001_w0000,1001,-0.0189752578735351,30.04966735839844,0,0.012533244827395226,-0.7148172006502468
1001_w0000,1001,0.0007739067077636,30.444656372070312,0,0.1549019653244175,-0.6755035353786478
1001_w0000,1001,0.0007739067077636,30.839630126953125,0,0.1549019653244175,-0.636191388830114
1001_w0000,1001,0.0007739067077636,31.234619140625,0,0.1549019653244175,-0.5968777235585145
1001_w0000,1001,-0.0091004371643066,32.02458190917969,0,0.0837193237991423,-0.5182519117383813
1001_w0000,1001,-0.0189752578735351,33.604522705078125,0,0.012533244827395226,-0.36099876937504927
1001_w0000,1001,-0.0387244224548339,34.789459228515625,0,-0.12983547566962778,-0.24306081100638205
1001_w0000,1001,-0.0683479309082031,36.76437377929688,0,-0.3433868376919274,-0.046495522094515435
1001_w0000,1001,-0.0880970954895019,38.739288330078125,0,-0.4857555581889504,0.15006976681734976
1001_w0000,1001,-0.0880970954895019,40.714202880859375,0,-0.4857555581889504,0.3466350557292157
1001_w0000,1001,-0.0880970954895019,43.0841064453125,0,-0.4857555581889504,0.582514009912681
1001_w0000,1001,-0.0979714393615722,45.45399475097656,0,-0.5569381997142263,0.8183914453730808
1001_w0000,1001,-0.0979714393615722,48.2188720703125,0,-0.5569381997142263,1.09358254610508
1001_w0000,1001,-0.0880970954895019,50.588775634765625,0,-0.4857555581889504,1.3294615002885453
1001_w0000,1001,-0.0880970954895019,52.95867919921875,0,-0.4857555581889504,1.5653404544720106
1001_w0000,1001,-0.0880970954895019,54.538604736328125,0,-0.4857555581889504,1.7225920781122772
1001_w0000,1001,-0.0880970954895019,56.513519287109375,0,-0.4857555581889504,1.919157367024143
1001_w0000,1001,-0.0880970954895019,58.09344482421875,0,-0.4857555581889504,2.0764089906644094
1001_w0000,1001,-0.0880970954895019,58.48843383789063,0,-0.4857555581889504,2.11572265593601
1001_w0000,1001,-0.0782227516174316,59.278411865234375,0,-0.4145729166636745,2.1943499864792075
1001_w0000,1001,0.0205230712890625,59.673370361328125,0,0.2972706858214412,2.233660614304676
1001_w0000,1001,0.3167600631713867,59.673370361328125,0,2.432798055830318,2.233660614304676
1001_w0000,1001,0.563624382019043,58.8834228515625,0,4.2124053433198725,2.1550363212076085
1001_w0000,1001,0.5340008735656738,58.48843383789063,0,3.9988539812975734,2.11572265593601
1001_w0000,1001,0.2575130462646484,57.69847106933594,0,2.0056953317857196,2.037096844115876
1001_w0000,1001,0.0501470565795898,56.90850830078125,0,0.5108254852902113,1.9584710322957424
1001_w0000,1001,-0.0189752578735351,56.513519287109375,0,0.012533244827395226,1.919157367024143
1001_w0000,1001,-0.0189752578735351,55.32856750488281,0,0.012533244827395226,1.8012178899324105
1001_w0000,1001,-0.0189752578735351,54.14361572265625,0,0.012533244827395226,1.6832784128406777
1001_w0000,1001,-0.0387244224548339,52.95867919921875,0,-0.12983547566962778,1.5653404544720106
1001_w0000,1001,-0.0584735870361328,52.168701171875,0,-0.2722041961666515,1.4867131239288118
1001_w0000,1001,-0.0584735870361328,50.588775634765625,0,-0.2722041961666515,1.3294615002885453
1001_w0000,1001,-0.0584735870361328,49.79881286621094,0,-0.2722041961666515,1.250835688468412
1001_w0000,1001,-0.0584735870361328,47.82389831542969,0,-0.2722041961666515,1.0542703995565461
1001_w0000,1001,-0.0485987663269043,46.638946533203125,0,-0.2010181171949044,0.9363309224648134
1001_w0000,1001,-0.0387244224548339,45.05902099609375,0,-0.12983547566962778,0.7790792988245469
1001_w0000,1001,-0.0288496017456054,43.47908020019531,0,-0.05864939669788069,0.6218261564612149
1001_w0000,1001,-0.0288496017456054,42.29414367675781,0,-0.05864939669788069,0.5038881980925477
1001_w0000,1001,-0.0189752578735351,40.714202880859375,0,0.012533244827395226,0.3466350557292157
1001_w0000,1001,-0.0189752578735351,39.52925109863281,0,0.012533244827395226,0.22869557863748305
1001_w0000,1001,-0.0189752578735351,38.739288330078125,0,0.012533244827395226,0.15006976681734976
1001_w0000,1001,-0.0189752578735351,37.55433654785156,0,0.012533244827395226,0.032130289725617135
1001_w0000,1001,-0.0091004371643066,37.15936279296875,0,0.0837193237991423,-0.007181856822916791
1001_w0000,1001,0.0007739067077636,36.36940002441406,0,0.1549019653244175,-0.08580766864305008
1001_w0000,1001,0.0007739067077636,35.97441101074219,0,0.1549019653244175,-0.1251213339146494
1001_w0000,1001,0.0007739067077636,35.579437255859375,0,0.1549019653244175,-0.16443348046318335
1001_w0000,1001,0.0106487274169921,35.1844482421875,0,0.22608804429616464,-0.2037471457347827
1001_w0000,1001,0.0205230712890625,35.1844482421875,0,0.2972706858214412,-0.2037471457347827
1001_w0000,1001,0.030397891998291,35.1844482421875,0,0.36845676479318834,-0.2037471457347827
1001_w0000,1001,0.0402722358703613,34.789459228515625,0,0.43963940631846427,-0.24306081100638205
1001_w0000,1001,0.0600214004516601,34.39448547363281,0,0.5820081268154873,-0.282372957554916
1001_w0000,1001,0.0698962211608886,34.39448547363281,0,0.6531942057872343,-0.282372957554916
1001_w0000,1001,0.0797705650329589,33.99949645996094,0,0.7243768473125103,-0.32168662282651533
1001_w0000,1001,0.0995197296142578,33.604522705078125,0,0.8667455678095339,-0.36099876937504927
1001_w0000,1001,0.1093940734863281,33.20953369140625,0,0.9379282093348099,-0.4003124346466486
1001_w0000,1001,0.1291432380676269,33.20953369140625,0,1.080296929831833,-0.4003124346466486
1001_w0000,1001,0.1291432380676269,32.41957092285156,0,1.080296929831833,-0.4789382464667819
1001_w0000,1001,0.1291432380676269,32.02458190917969,0,1.080296929831833,-0.5182519117383813
1001_w0000,1001,0.1291432380676269,32.02458190917969,0,1.080296929831833,-0.5182519117383813
1001_w0000,1001,0.1192688941955566,31.629608154296875,0,1.0091142883065571,-0.5575640582869152
1001_w0000,1001,0.0896453857421875,31.629608154296875,0,0.7955629262842581,-0.5575640582869152
1001_w0000,1001,0.0600214004516601,31.234619140625,0,0.5820081268154873,-0.5968777235585145
1001_w0000,1001,0.030397891998291,30.839630126953125,0,0.36845676479318834,-0.636191388830114
1001_w0000,1001,0.0007739067077636,31.234619140625,0,0.1549019653244175,-0.5968777235585145
1001_w0000,1001,-0.0189752578735351,30.839630126953125,0,0.012533244827395226,-0.636191388830114
1001_w0000,1001,-0.0387244224548339,30.839630126953125,0,-0.12983547566962778,-0.636191388830114
1001_w0000,1001,-0.0485987663269043,30.444656372070312,0,-0.2010181171949044,-0.6755035353786478
1001_w0000,1001,-0.0584735870361328,30.444656372070312,0,-0.2722041961666515,-0.6755035353786478
1001_w0000,1001,-0.0683479309082031,30.444656372070312,0,-0.3433868376919274,-0.6755035353786478
1001_w0000,1001,-0.0584735870361328,30.444656372070312,0,-0.2722041961666515,-0.6755035353786478
1001_w0000,1001,-0.0683479309082031,30.444656372070312,0,-0.3433868376919274,-0.6755035353786478
1001_w0000,1001,-0.0584735870361328,30.04966735839844,0,-0.2722041961666515,-0.7148172006502468
1001_w0000,1001,-0.0683479309082031,30.04966735839844,0,-0.3433868376919274,-0.7148172006502468
1001_w0000,1001,-0.0584735870361328,30.04966735839844,0,-0.2722041961666515,-0.7148172006502468
1001_w0000,1001,-0.0683479309082031,30.04966735839844,0,-0.3433868376919274,-0.7148172006502468
1001_w0000,1001,-0.0782227516174316,30.04966735839844,0,-0.4145729166636745,-0.7148172006502468
1001_w0000,1001,-0.0782227516174316,30.04966735839844,0,-0.4145729166636745,-0.7148172006502468
1001_w0000,1001,-0.0683479309082031,29.654693603515625,0,-0.3433868376919274,-0.7541293471987811
1001_w0000,1001,-0.0584735870361328,29.654693603515625,0,-0.2722041961666515,-0.7541293471987811
1001_w0000,1001,-0.0683479309082031,29.654693603515625,0,-0.3433868376919274,-0.7541293471987811
1001_w0000,1001,-0.0683479309082031,29.654693603515625,0,-0.3433868376919274,-0.7541293471987811
1001_w0000,1001,-0.0683479309082031,29.654693603515625,0,-0.3433868376919274,-0.7541293471987811
1001_w0000,1001,-0.0683479309082031,29.654693603515625,0,-0.3433868376919274,-0.7541293471987811
1001_w0000,1001,-0.0683479309082031,29.654693603515625,0,-0.3433868376919274,-0.7541293471987811
1001_w0000,1001,-0.0782227516174316,29.25970458984375,0,-0.4145729166636745,-0.7934430124703805
1001_w0000,1001,-0.0782227516174316,29.25970458984375,0,-0.4145729166636745,-0.7934430124703805
1001_w0000,1001,-0.0782227516174316,29.25970458984375,0,-0.4145729166636745,-0.7934430124703805
1001_w0000,1001,-0.0880970954895019,29.25970458984375,0,-0.4857555581889504,-0.7934430124703805
1001_w0000,1001,-0.0880970954895019,29.654693603515625,0,-0.4857555581889504,-0.7541293471987811
1001_w0000,1001,-0.0782227516174316,29.654693603515625,0,-0.4145729166636745,-0.7541293471987811
1001_w0000,1001,-0.0683479309082031,29.654693603515625,0,-0.3433868376919274,-0.7541293471987811
1001_w0000,1001,-0.0782227516174316,29.654693603515625,0,-0.4145729166636745,-0.7541293471987811
1001_w0000,1001,-0.0782227516174316,30.04966735839844,0,-0.4145729166636745,-0.7148172006502468
1001_w0000,1001,-0.0880970954895019,30.04966735839844,0,-0.4857555581889504,-0.7148172006502468
1001_w0000,1001,-0.0782227516174316,30.04966735839844,0,-0.4145729166636745,-0.7148172006502468
1001_w0000,1001,-0.0782227516174316,30.04966735839844,0,-0.4145729166636745,-0.7148172006502468
1001_w0000,1001,-0.0683479309082031,30.04966735839844,0,-0.3433868376919274,-0.7148172006502468
1001_w0000,1001,-0.0683479309082031,30.04966735839844,0,-0.3433868376919274,-0.7148172006502468
1001_w0000,1001,-0.0683479309082031,30.04966735839844,0,-0.3433868376919274,-0.7148172006502468
1001_w0000,1001,-0.0782227516174316,30.04966735839844,0,-0.4145729166636745,-0.7148172006502468
1001_w0000,1001,-0.0782227516174316,30.444656372070312,0,-0.4145729166636745,-0.6755035353786478
1001_w0000,1001,-0.0683479309082031,30.444656372070312,0,-0.3433868376919274,-0.6755035353786478
1001_w0000,1001,-0.0584735870361328,30.444656372070312,0,-0.2722041961666515,-0.6755035353786478
1001_w0000,1001,-0.0584735870361328,30.444656372070312,0,-0.2722041961666515,-0.6755035353786478
1001_w0000,1001,-0.0387244224548339,30.444656372070312,0,-0.12983547566962778,-0.6755035353786478
1001_w0000,1001,-0.0091004371643066,30.444656372070312,0,0.0837193237991423,-0.6755035353786478
1001_w0000,1001,0.0007739067077636,30.444656372070312,0,0.1549019653244175,-0.6755035353786478
1001_w0000,1001,-0.0091004371643066,30.444656372070312,0,0.0837193237991423,-0.6755035353786478
1001_w0000,1001,-0.0091004371643066,30.444656372070312,0,0.0837193237991423,-0.6755035353786478
1001_w0000,1001,0.0106487274169921,30.839630126953125,0,0.22608804429616464,-0.636191388830114
1001_w0000,1001,0.0205230712890625,31.234619140625,0,0.2972706858214412,-0.5968777235585145
1001_w0000,1001,0.0205230712890625,31.629608154296875,0,0.2972706858214412,-0.5575640582869152
1001_w0000,1001,0.0205230712890625,32.814544677734375,0,0.2972706858214412,-0.43962609991824797
1001_w0000,1001,0.0007739067077636,33.604522705078125,0,0.1549019653244175,-0.36099876937504927
1001_w0000,1001,-0.0189752578735351,34.789459228515625,0,0.012533244827395226,-0.24306081100638205
1001_w0000,1001,-0.0584735870361328,36.76437377929688,0,-0.2722041961666515,-0.046495522094515435
1001_w0000,1001,-0.0782227516174316,38.34431457519531,0,-0.4145729166636745,0.11075762026881585
1001_w0000,1001,-0.0683479309082031,40.31922912597656,0,-0.3433868376919274,0.3073229091806818
1001_w0000,1001,-0.0782227516174316,43.0841064453125,0,-0.4145729166636745,0.582514009912681
1001_w0000,1001,-0.0782227516174316,46.24397277832031,0,-0.4145729166636745,0.8970187759162795
1001_w0000,1001,-0.0782227516174316,49.00885009765625,0,-0.4145729166636745,1.1722098766482787
1001_w0000,1001,-0.0880970954895019,51.37873840332031,0,-0.4857555581889504,1.4080873121086785
1001_w0000,1001,-0.0782227516174316,53.35365295410156,0,-0.4145729166636745,1.6046526010205444
1001_w0000,1001,-0.0683479309082031,56.513519287109375,0,-0.3433868376919274,1.919157367024143
1001_w0000,1001,-0.0683479309082031,58.48843383789063,0,-0.3433868376919274,2.11572265593601
1001_w0000,1001,-0.0683479309082031,60.068359375,0,-0.3433868376919274,2.2729742795762755
1001_w0000,1001,-0.0584735870361328,61.253326416015625,0,-0.2722041961666515,2.3909152753910736
1001_w0000,1001,-0.0584735870361328,62.04327392578125,0,-0.2722041961666515,2.4695395684881416
1001_w0000,1001,-0.0387244224548339,62.438262939453125,0,-0.12983547566962778,2.5088532337597407
1001_w0000,1001,0.1093940734863281,61.648284912109375,0,0.9379282093348099,2.430225903216542
1001_w0000,1001,0.4451298713684082,61.648284912109375,0,3.3581964577842043,2.430225903216542
1001_w0000,1001,0.6228718757629395,61.253326416015625,0,4.639511504810942,2.3909152753910736
1001_w0000,1001,0.5043768882751465,60.068359375,0,3.785299181828803,2.2729742795762755
1001_w0000,1001,0.2180147171020507,59.278411865234375,0,1.7209578907916727,2.1943499864792075
1001_w0000,1001,0.0600214004516601,58.48843383789063,0,0.5820081268154873,2.11572265593601
1001_w0000,1001,0.030397891998291,57.69847106933594,0,0.36845676479318834,2.037096844115876
1001_w0000,1001,0.0205230712890625,56.513519287109375,0,0.2972706858214412,1.919157367024143
1001_w0000,1001,0.0007739067077636,55.32856750488281,0,0.1549019653244175,1.8012178899324105
1001_w0000,1001,-0.0189752578735351,54.14361572265625,0,0.012533244827395226,1.6832784128406777
1001_w0000,1001,-0.0288496017456054,52.95867919921875,0,-0.05864939669788069,1.5653404544720106
1001_w0000,1001,-0.0288496017456054,51.77372741699219,0,-0.05864939669788069,1.4474009773802778
1001_w0000,1001,-0.0288496017456054,50.19378662109375,0,-0.05864939669788069,1.290147835016946
1001_w0000,1001,-0.0189752578735351,48.613861083984375,0,0.012533244827395226,1.1328962113766794
1001_w0000,1001,-0.0189752578735351,47.033935546875,0,0.012533244827395226,0.9756445877364128
1001_w0000,1001,-0.0189752578735351,45.45399475097656,0,0.012533244827395226,0.8183914453730808
1001_w0000,1001,-0.0288496017456054,43.87406921386719,0,-0.05864939669788069,0.6611398217328143
1001_w0000,1001,-0.0288496017456054,42.29414367675781,0,-0.05864939669788069,0.5038881980925477
1001_w0000,1001,-0.0288496017456054,40.714202880859375,0,-0.05864939669788069,0.3466350557292157
1001_w0000,1001,-0.0288496017456054,39.92424011230469,0,-0.05864939669788069,0.26800924390908243
1001_w0000,1001,-0.0189752578735351,38.739288330078125,0,0.012533244827395226,0.15006976681734976
1001_w0000,1001,-0.0288496017456054,37.55433654785156,0,-0.05864939669788069,0.032130289725617135
1001_w0000,1001,-0.0189752578735351,37.15936279296875,0,0.012533244827395226,-0.007181856822916791
1001_w0000,1001,-0.0091004371643066,36.36940002441406,0,0.0837193237991423,-0.08580766864305008
1001_w0000,1001,-0.0189752578735351,36.36940002441406,0,0.012533244827395226,-0.08580766864305008
1001_w0000,1001,-0.0189752578735351,36.36940002441406,0,0.012533244827395226,-0.08580766864305008
1001_w0000,1001,-0.0091004371643066,35.97441101074219,0,0.0837193237991423,-0.1251213339146494
1001_w0000,1001,-0.0091004371643066,35.579437255859375,0,0.0837193237991423,-0.16443348046318335
1001_w0000,1001,0.0007739067077636,35.1844482421875,0,0.1549019653244175,-0.2037471457347827
1001_w0000,1001,0.0106487274169921,34.789459228515625,0,0.22608804429616464,-0.24306081100638205
1001_w0000,1001,0.030397891998291,34.789459228515625,0,0.36845676479318834,-0.24306081100638205
1001_w0000,1001,0.0402722358703613,34.39448547363281,0,0.43963940631846427,-0.282372957554916
1001_w0000,1001,0.0501470565795898,33.99949645996094,0,0.5108254852902113,-0.32168662282651533
1001_w0000,1001,0.0600214004516601,33.99949645996094,0,0.5820081268154873,-0.32168662282651533
1001_w0000,1001,0.0600214004516601,32.814544677734375,0,0.5820081268154873,-0.43962609991824797
1001_w0000,1001,0.0797705650329589,32.814544677734375,0,0.7243768473125103,-0.43962609991824797
1001_w0000,1001,0.0698962211608886,32.41957092285156,0,0.6531942057872343,-0.4789382464667819
1001_w0000,1001,0.0698962211608886,32.02458190917969,0,0.6531942057872343,-0.5182519117383813
1001_w0000,1001,0.0698962211608886,31.629608154296875,0,0.6531942057872343,-0.5575640582869152
1001_w0000,1001,0.0501470565795898,31.629608154296875,0,0.5108254852902113,-0.5575640582869152
1001_w0000,1001,0.0205230712890625,30.839630126953125,0,0.2972706858214412,-0.636191388830114
1001_w0000,1001,-0.0189752578735351,30.839630126953125,0,0.012533244827395226,-0.636191388830114
1001_w0000,1001,-0.0485987663269043,30.839630126953125,0,-0.2010181171949044,-0.636191388830114
1001_w0000,1001,-0.0683479309082031,30.839630126953125,0,-0.3433868376919274,-0.636191388830114
1001_w0000,1001,-0.0683479309082031,30.839630126953125,0,-0.3433868376919274,-0.636191388830114
1001_w0000,1001,-0.0782227516174316,30.444656372070312,0,-0.4145729166636745,-0.6755035353786478
1001_w0000,1001,-0.0880970954895019,30.444656372070312,0,-0.4857555581889504,-0.6755035353786478
1001_w0000,1001,-0.0979714393615722,30.444656372070312,0,-0.5569381997142263,-0.6755035353786478
1001_w0000,1001,-0.0880970954895019,30.04966735839844,0,-0.4857555581889504,-0.7148172006502468
1001_w0000,1001,-0.0979714393615722,30.04966735839844,0,-0.5569381997142263,-0.7148172006502468
1001_w0000,1001,-0.0880970954895019,30.04966735839844,0,-0.4857555581889504,-0.7148172006502468
1001_w0000,1001,-0.0782227516174316,29.654693603515625,0,-0.4145729166636745,-0.7541293471987811
1001_w0000,1001,-0.0880970954895019,29.654693603515625,0,-0.4857555581889504,-0.7541293471987811
1001_w0000,1001,-0.0880970954895019,29.654693603515625,0,-0.4857555581889504,-0.7541293471987811
1001_w0000,1001,-0.0683479309082031,29.654693603515625,0,-0.3433868376919274,-0.7541293471987811
1001_w0000,1001,-0.0683479309082031,29.25970458984375,0,-0.3433868376919274,-0.7934430124703805
1001_w0000,1001,-0.0683479309082031,29.25970458984375,0,-0.3433868376919274,-0.7934430124703805
1001_w0000,1001,-0.0683479309082031,29.25970458984375,0,-0.3433868376919274,-0.7934430124703805
1001_w0000,1001,-0.0683479309082031,29.25970458984375,0,-0.3433868376919274,-0.7934430124703805
1001_w0000,1001,-0.0584735870361328,29.25970458984375,0,-0.2722041961666515,-0.7934430124703805
1001_w0000,1001,-0.0584735870361328,28.864715576171875,0,-0.2722041961666515,-0.8327566777419798
1001_w0000,1001,-0.0584735870361328,28.864715576171875,0,-0.2722041961666515,-0.8327566777419798
1001_w0000,1001,-0.0485987663269043,28.864715576171875,0,-0.2010181171949044,-0.8327566777419798
1001_w0000,1001,-0.0584735870361328,28.864715576171875,0,-0.2722041961666515,-0.8327566777419798
1001_w0000,1001,-0.0485987663269043,28.864715576171875,0,-0.2010181171949044,-0.8327566777419798
1001_w0000,1001,-0.0485987663269043,28.864715576171875,0,-0.2010181171949044,-0.8327566777419798
1001_w0000,1001,-0.0485987663269043,28.864715576171875,0,-0.2010181171949044,-0.8327566777419798
1001_w0000,1001,-0.0485987663269043,28.864715576171875,0,-0.2010181171949044,-0.8327566777419798
1001_w0000,1001,-0.0584735870361328,28.864715576171875,0,-0.2722041961666515,-0.8327566777419798
1001_w0000,1001,-0.0683479309082031,29.25970458984375,0,-0.3433868376919274,-0.7934430124703805
1001_w0000,1001,-0.0584735870361328,29.25970458984375,0,-0.2722041961666515,-0.7934430124703805
1001_w0000,1001,-0.0584735870361328,29.25970458984375,0,-0.2722041961666515,-0.7934430124703805
1001_w0000,1001,-0.0584735870361328,29.25970458984375,0,-0.2722041961666515,-0.7934430124703805
1001_w0000,1001,-0.0485987663269043,29.654693603515625,0,-0.2010181171949044,-0.7541293471987811
1001_w0000,1001,-0.0584735870361328,29.654693603515625,0,-0.2722041961666515,-0.7541293471987811
1001_w0000,1001,-0.0485987663269043,29.654693603515625,0,-0.2010181171949044,-0.7541293471987811
1001_w0000,1001,-0.0584735870361328,29.654693603515625,0,-0.2722041961666515,-0.7541293471987811
1001_w0000,1001,-0.0584735870361328,30.04966735839844,0,-0.2722041961666515,-0.7148172006502468
1001_w0000,1001,-0.0683479309082031,30.04966735839844,0,-0.3433868376919274,-0.7148172006502468
1001_w0000,1001,-0.0782227516174316,30.04966735839844,0,-0.4145729166636745,-0.7148172006502468
1001_w0000,1001,-0.0683479309082031,30.04966735839844,0,-0.3433868376919274,-0.7148172006502468
1001_w0000,1001,-0.0782227516174316,30.04966735839844,0,-0.4145729166636745,-0.7148172006502468
1001_w0000,1001,-0.0880970954895019,30.04966735839844,0,-0.4857555581889504,-0.7148172006502468
1001_w0000,1001,-0.0880970954895019,30.04966735839844,0,-0.4857555581889504,-0.7148172006502468
1001_w0000,1001,-0.0782227516174316,30.04966735839844,0,-0.4145729166636745,-0.7148172006502468
1001_w0000,1001,-0.0782227516174316,30.04966735839844,0,-0.4145729166636745,-0.7148172006502468
1001_w0000,1001,-0.0880970954895019,30.04966735839844,0,-0.4857555581889504,-0.7148172006502468
1001_w0000,1001,-0.0880970954895019,30.04966735839844,0,-0.4857555581889504,-0.7148172006502468
1001_w0000,1001,-0.0485987663269043,30.04966735839844,0,-0.2010181171949044,-0.7148172006502468
1001_w0000,1001,-0.0387244224548339,30.04966735839844,0,-0.12983547566962778,-0.7148172006502468
1001_w0000,1001,-0.0387244224548339,30.444656372070312,0,-0.12983547566962778,-0.6755035353786478
1001_w0000,1001,-0.0485987663269043,30.444656372070312,0,-0.2010181171949044,-0.6755035353786478
1001_w0000,1001,-0.0288496017456054,30.839630126953125,0,-0.05864939669788069,-0.636191388830114
1001_w0000,1001,-0.0189752578735351,31.629608154296875,0,0.012533244827395226,-0.5575640582869152
1001_w0000,1001,-0.0288496017456054,31.629608154296875,0,-0.05864939669788069,-0.5575640582869152
1001_w0000,1001,-0.0288496017456054,32.41957092285156,0,-0.05864939669788069,-0.4789382464667819
1001_w0000,1001,-0.0387244224548339,33.604522705078125,0,-0.12983547566962778,-0.36099876937504927
1001_w0000,1001,-0.0584735870361328,35.579437255859375,0,-0.2722041961666515,-0.16443348046318335
1001_w0000,1001,-0.1078462600708007,36.76437377929688,0,-0.6281242786859734,-0.046495522094515435
1001_w0000,1001,-0.1374697685241699,39.13427734375,0,-0.841675640708273,0.18938343208894912
1001_w0000,1001,-0.1374697685241699,41.89915466308594,0,-0.841675640708273,0.46457453282094835
1001_w0000,1001,-0.1473445892333984,44.66403198242188,0,-0.9128617196800203,0.7397656335529482
1001_w0000,1001,-0.1572189331054687,47.033935546875,0,-0.984044361205296,0.9756445877364128
1001_w0000,1001,-0.1473445892333984,49.79881286621094,0,-0.9128617196800203,1.250835688468412
1001_w0000,1001,-0.1572189331054687,52.95867919921875,0,-0.984044361205296,1.5653404544720106
1001_w0000,1001,-0.1572189331054687,55.72355651855469,0,-0.984044361205296,1.8405315552040098
1001_w0000,1001,-0.1670937538146972,57.30348205566406,0,-1.0552304401770431,1.9977831788442764
1001_w0000,1001,-0.1572189331054687,58.8834228515625,0,-0.984044361205296,2.1550363212076085
1001_w0000,1001,-0.1572189331054687,61.253326416015625,0,-0.984044361205296,2.3909152753910736
1001_w0000,1001,-0.1473445892333984,61.648284912109375,0,-0.9128617196800203,2.430225903216542
1001_w0000,1001,-0.1473445892333984,62.04327392578125,0,-0.9128617196800203,2.4695395684881416
1001_w0000,1001,-0.0979714393615722,62.438262939453125,0,-0.5569381997142263,2.5088532337597407
1001_w0000,1001,0.1587672233581543,62.438262939453125,0,1.2938517293006038,2.5088532337597407
1001_w0000,1001,0.464879035949707,62.04327392578125,0,3.5005651782812275,2.4695395684881416
1001_w0000,1001,0.5438752174377441,61.253326416015625,0,4.070036622822849,2.3909152753910736
1001_w0000,1001,0.3068857192993164,60.46334838867188,0,2.361615414305042,2.3122879448478755
1001_w0000,1001,0.0501470565795898,59.673370361328125,0,0.5108254852902113,2.233660614304676
1001_w0000,1001,-0.0584735870361328,58.48843383789063,0,-0.2722041961666515,2.11572265593601
1001_w0000,1001,-0.0782227516174316,57.30348205566406,0,-0.4145729166636745,1.9977831788442764
1001_w0000,1001,-0.0880970954895019,56.1185302734375,0,-0.4857555581889504,1.8798437017525438
1001_w0000,1001,-0.0979714393615722,54.93359375,0,-0.5569381997142263,1.7619057433838765
1001_w0000,1001,-0.1177206039428711,54.14361572265625,0,-0.6993069202112501,1.6832784128406777
1001_w0000,1001,-0.1275954246520996,52.95867919921875,0,-0.7704929991829972,1.5653404544720106
1001_w0000,1001,-0.1275954246520996,50.9837646484375,0,-0.7704929991829972,1.3687751655601446
1001_w0000,1001,-0.1177206039428711,49.79881286621094,0,-0.6993069202112501,1.250835688468412
1001_w0000,1001,-0.1078462600708007,48.2188720703125,0,-0.6281242786859734,1.09358254610508
1001_w0000,1001,-0.1078462600708007,46.638946533203125,0,-0.6281242786859734,0.9363309224648134
1001_w0000,1001,-0.0979714393615722,45.05902099609375,0,-0.5569381997142263,0.7790792988245469
1001_w0000,1001,-0.0880970954895019,43.0841064453125,0,-0.4857555581889504,0.582514009912681
1001_w0000,1001,-0.0880970954895019,41.89915466308594,0,-0.4857555581889504,0.46457453282094835
1001_w0000,1001,-0.0683479309082031,40.714202880859375,0,-0.3433868376919274,0.3466350557292157
1001_w0000,1001,-0.0683479309082031,39.52925109863281,0,-0.3433868376919274,0.22869557863748305
1001_w0000,1001,-0.0584735870361328,38.34431457519531,0,-0.2722041961666515,0.11075762026881585
1001_w0000,1001,-0.0584735870361328,37.55433654785156,0,-0.2722041961666515,0.032130289725617135
1001_w0000,1001,-0.0485987663269043,37.55433654785156,0,-0.2010181171949044,0.032130289725617135
1001_w0000,1001,-0.0387244224548339,36.76437377929688,0,-0.12983547566962778,-0.046495522094515435
1001_w0000,1001,-0.0288496017456054,36.36940002441406,0,-0.05864939669788069,-0.08580766864305008
1001_w0000,1001,-0.0189752578735351,35.97441101074219,0,0.012533244827395226,-0.1251213339146494
1001_w0000,1001,-0.0091004371643066,35.579437255859375,0,0.0837193237991423,-0.16443348046318335
1001_w0000,1001,0.0007739067077636,35.1844482421875,0,0.1549019653244175,-0.2037471457347827
1001_w0000,1001,0.0106487274169921,35.1844482421875,0,0.22608804429616464,-0.2037471457347827
1001_w0000,1001,0.0205230712890625,34.789459228515625,0,0.2972706858214412,-0.24306081100638205
1001_w0000,1001,0.0402722358703613,34.39448547363281,0,0.43963940631846427,-0.282372957554916
1001_w0000,1001,0.0600214004516601,34.39448547363281,0,0.5820081268154873,-0.282372957554916
1001_w0000,1001,0.0797705650329589,33.604522705078125,0,0.7243768473125103,-0.36099876937504927
1001_w0000,1001,0.0896453857421875,33.20953369140625,0,0.7955629262842581,-0.4003124346466486
1001_w0000,1001,0.0995197296142578,33.20953369140625,0,0.8667455678095339,-0.4003124346466486
1001_w0000,1001,0.1093940734863281,32.814544677734375,0,0.9379282093348099,-0.43962609991824797
1001_w0000,1001,0.1093940734863281,32.02458190917969,0,0.9379282093348099,-0.5182519117383813
1001_w0000,1001,0.1093940734863281,31.629608154296875,0,0.9379282093348099,-0.5575640582869152
1001_w0000,1001,0.1093940734863281,31.234619140625,0,0.9379282093348099,-0.5968777235585145
1001_w0000,1001,0.0995197296142578,31.234619140625,0,0.8667455678095339,-0.5968777235585145
1001_w0000,1001,0.0698962211608886,30.839630126953125,0,0.6531942057872343,-0.636191388830114
1001_w0000,1001,0.0501470565795898,30.839630126953125,0,0.5108254852902113,-0.636191388830114
1001_w0000,1001,0.0205230712890625,30.444656372070312,0,0.2972706858214412,-0.6755035353786478
1001_w0000,1001,-0.0091004371643066,30.444656372070312,0,0.0837193237991423,-0.6755035353786478
1001_w0000,1001,-0.0288496017456054,30.444656372070312,0,-0.05864939669788069,-0.6755035353786478
1001_w0000,1001,-0.0387244224548339,30.04966735839844,0,-0.12983547566962778,-0.7148172006502468
1001_w0000,1001,-0.0485987663269043,30.04966735839844,0,-0.2010181171949044,-0.7148172006502468
1001_w0000,1001,-0.0485987663269043,29.654693603515625,0,-0.2010181171949044,-0.7541293471987811
1001_w0000,1001,-0.0485987663269043,30.04966735839844,0,-0.2010181171949044,-0.7148172006502468
1001_w0000,1001,-0.0584735870361328,30.04966735839844,0,-0.2722041961666515,-0.7148172006502468
1001_w0000,1001,-0.0584735870361328,29.654693603515625,0,-0.2722041961666515,-0.7541293471987811
1001_w0000,1001,-0.0584735870361328,29.654693603515625,0,-0.2722041961666515,-0.7541293471987811
1001_w0000,1001,-0.0485987663269043,29.654693603515625,0,-0.2010181171949044,-0.7541293471987811
1001_w0000,1001,-0.0584735870361328,29.25970458984375,0,-0.2722041961666515,-0.7934430124703805
1001_w0000,1001,-0.0485987663269043,29.25970458984375,0,-0.2010181171949044,-0.7934430124703805
1001_w0000,1001,-0.0485987663269043,28.864715576171875,0,-0.2010181171949044,-0.8327566777419798
1001_w0000,1001,-0.0485987663269043,28.864715576171875,0,-0.2010181171949044,-0.8327566777419798
1001_w0000,1001,-0.0485987663269043,28.864715576171875,0,-0.2010181171949044,-0.8327566777419798
1001_w0000,1001,-0.0387244224548339,28.864715576171875,0,-0.12983547566962778,-0.8327566777419798
1001_w0000,1001,-0.0485987663269043,28.864715576171875,0,-0.2010181171949044,-0.8327566777419798
1001_w0000,1001,-0.0485987663269043,28.864715576171875,0,-0.2010181171949044,-0.8327566777419798
1001_w0000,1001,-0.0485987663269043,28.864715576171875,0,-0.2010181171949044,-0.8327566777419798
1001_w0000,1001,-0.0485987663269043,28.864715576171875,0,-0.2010181171949044,-0.8327566777419798
1001_w0000,1001,-0.0485987663269043,28.864715576171875,0,-0.2010181171949044,-0.8327566777419798
1001_w0000,1001,-0.0485987663269043,28.864715576171875,0,-0.2010181171949044,-0.8327566777419798
1001_w0000,1001,-0.0584735870361328,28.864715576171875,0,-0.2722041961666515,-0.8327566777419798
1001_w0000,1001,-0.0584735870361328,29.25970458984375,0,-0.2722041961666515,-0.7934430124703805
1001_w0000,1001,-0.0584735870361328,28.864715576171875,0,-0.2722041961666515,-0.8327566777419798
1001_w0000,1001,-0.0584735870361328,29.25970458984375,0,-0.2722041961666515,-0.7934430124703805
1001_w0000,1001,-0.0584735870361328,28.864715576171875,0,-0.2722041961666515,-0.8327566777419798
1001_w0000,1001,-0.0683479309082031,28.864715576171875,0,-0.3433868376919274,-0.8327566777419798
1001_w0000,1001,-0.0683479309082031,28.864715576171875,0,-0.3433868376919274,-0.8327566777419798
1001_w0000,1001,-0.0683479309082031,28.864715576171875,0,-0.3433868376919274,-0.8327566777419798
1001_w0000,1001,-0.0584735870361328,28.864715576171875,0,-0.2722041961666515,-0.8327566777419798
1001_w0000,1001,-0.0683479309082031,28.864715576171875,0,-0.3433868376919274,-0.8327566777419798
1001_w0000,1001,-0.0683479309082031,29.25970458984375,0,-0.3433868376919274,-0.7934430124703805
1001_w0000,1001,-0.0584735870361328,29.25970458984375,0,-0.2722041961666515,-0.7934430124703805
1001_w0000,1001,-0.0683479309082031,29.25970458984375,0,-0.3433868376919274,-0.7934430124703805
1001_w0000,1001,-0.0584735870361328,29.25970458984375,0,-0.2722041961666515,-0.7934430124703805
1001_w0000,1001,-0.0584735870361328,29.654693603515625,0,-0.2722041961666515,-0.7541293471987811
1001_w0000,1001,-0.0485987663269043,29.25970458984375,0,-0.2010181171949044,-0.7934430124703805
1001_w0000,1001,-0.0387244224548339,29.25970458984375,0,-0.12983547566962778,-0.7934430124703805
1001_w0000,1001,-0.0387244224548339,29.25970458984375,0,-0.12983547566962778,-0.7934430124703805
1001_w0000,1001,-0.0387244224548339,29.654693603515625,0,-0.12983547566962778,-0.7541293471987811
1001_w0000,1001,-0.0485987663269043,29.25970458984375,0,-0.2010181171949044,-0.7934430124703805
1001_w0000,1001,-0.0485987663269043,29.654693603515625,0,-0.2010181171949044,-0.7541293471987811
1001_w0000,1001,-0.0485987663269043,29.654693603515625,0,-0.2010181171949044,-0.7541293471987811
1001_w0000,1001,-0.0485987663269043,30.04966735839844,0,-0.2010181171949044,-0.7148172006502468
1001_w0000,1001,-0.0387244224548339,30.04966735839844,0,-0.12983547566962778,-0.7148172006502468
1001_w0000,1001,-0.0387244224548339,30.04966735839844,0,-0.12983547566962778,-0.7148172006502468
1001_w0000,1001,-0.0485987663269043,30.04966735839844,0,-0.2010181171949044,-0.7148172006502468
1001_w0000,1001,-0.0485987663269043,30.04966735839844,0,-0.2010181171949044,-0.7148172006502468
1001_w0000,1001,-0.0485987663269043,30.04966735839844,0,-0.2010181171949044,-0.7148172006502468
1001_w0000,1001,-0.0485987663269043,30.04966735839844,0,-0.2010181171949044,-0.7148172006502468
1001_w0000,1001,-0.0485987663269043,30.444656372070312,0,-0.2010181171949044,-0.6755035353786478
1001_w0000,1001,-0.0485987663269043,30.444656372070312,0,-0.2010181171949044,-0.6755035353786478
1001_w0000,1001,-0.0485987663269043,30.444656372070312,0,-0.2010181171949044,-0.6755035353786478
1001_w0000,1001,-0.0485987663269043,30.444656372070312,0,-0.2010181171949044,-0.6755035353786478
1001_w0000,1001,-0.0485987663269043,30.444656372070312,0,-0.2010181171949044,-0.6755035353786478
1001_w0000,1001,-0.0683479309082031,30.444656372070312,0,-0.3433868376919274,-0.6755035353786478
1001_w0000,1001,-0.0584735870361328,30.444656372070312,0,-0.2722041961666515,-0.6755035353786478
1001_w0000,1001,-0.0485987663269043,30.444656372070312,0,-0.2010181171949044,-0.6755035353786478
1001_w0000,1001,-0.0288496017456054,30.444656372070312,0,-0.05864939669788069,-0.6755035353786478
1001_w0000,1001,-0.0189752578735351,30.444656372070312,0,0.012533244827395226,-0.6755035353786478
1001_w0000,1001,-0.0288496017456054,30.839630126953125,0,-0.05864939669788069,-0.636191388830114
1001_w0000,1001,-0.0387244224548339,31.234619140625,0,-0.12983547566962778,-0.5968777235585145
1001_w0000,1001,-0.0288496017456054,31.629608154296875,0,-0.05864939669788069,-0.5575640582869152
1001_w0000,1001,-0.0288496017456054,32.41957092285156,0,-0.05864939669788069,-0.4789382464667819
1001_w0000,1001,-0.0288496017456054,33.604522705078125,0,-0.05864939669788069,-0.36099876937504927
1001_w0000,1001,-0.0485987663269043,34.789459228515625,0,-0.2010181171949044,-0.24306081100638205
1001_w0000,1001,-0.0683479309082031,36.36940002441406,0,-0.3433868376919274,-0.08580766864305008
1001_w0000,1001,-0.1078462600708007,38.34431457519531,0,-0.6281242786859734,0.11075762026881585
1001_w0000,1001,-0.1572189331054687,40.31922912597656,0,-0.984044361205296,0.3073229091806818
1001_w0000,1001,-0.1868429183959961,43.0841064453125,0,-1.1975991606740668,0.582514009912681
1001_w0000,1001,-0.1967172622680664,45.45399475097656,0,-1.268781802199343,0.8183914453730808
1001_w0000,1001,-0.1967172622680664,48.613861083984375,0,-1.268781802199343,1.1328962113766794
1001_w0000,1001,-0.2065920829772949,51.77372741699219,0,-1.3399678811710898,1.4474009773802778
1001_w0000,1001,-0.2164664268493652,54.14361572265625,0,-1.4111505226963659,1.6832784128406777
1001_w0000,1001,-0.2263412475585937,56.513519287109375,0,-1.482336601668113,1.919157367024143
1001_w0000,1001,-0.236215591430664,58.8834228515625,0,-1.5535192431933889,2.1550363212076085
1001_w0000,1001,-0.2263412475585937,60.46334838867188,0,-1.482336601668113,2.3122879448478755
1001_w0000,1001,-0.2263412475585937,61.648284912109375,0,-1.482336601668113,2.430225903216542
1001_w0000,1001,-0.2263412475585937,62.438262939453125,0,-1.482336601668113,2.5088532337597407
1001_w0000,1001,-0.2164664268493652,63.22824096679688,0,-1.4111505226963659,2.58748056430294
1001_w0000,1001,-0.1275954246520996,63.22824096679688,0,-0.7704929991829972,2.58748056430294
1001_w0000,1001,0.1488924026489257,62.833251953125,0,1.222665650328856,2.54816689903134
1001_w0000,1001,0.4056315422058105,62.438262939453125,4,3.073459016790158,2.5088532337597407
1001_w0000,1001,0.3760075569152832,62.04327392578125,4,2.8599042173213878,2.4695395684881416
1001_w0000,1001,0.0797705650329589,60.85833740234375,4,0.7243768473125103,2.351601610119474
1001_w0000,1001,-0.1177206039428711,60.068359375,4,-0.6993069202112501,2.2729742795762755
1001_w0000,1001,-0.1868429183959961,59.278411865234375,4,-1.1975991606740668,2.1943499864792075
1001_w0000,1001,-0.1868429183959961,58.09344482421875,4,-1.1975991606740668,2.0764089906644094
1001_w0000,1001,-0.1967172622680664,56.90850830078125,4,-1.268781802199343,1.9584710322957424
1001_w0000,1001,-0.236215591430664,55.72355651855469,4,-1.5535192431933889,1.8405315552040098
1001_w0000,1001,-0.236215591430664,54.538604736328125,4,-1.5535192431933889,1.7225920781122772
1001_w0000,1001,-0.2460904121398925,52.95867919921875,4,-1.624705322165136,1.5653404544720106
1001_w0000,1001,-0.2460904121398925,51.77372741699219,4,-1.624705322165136,1.4474009773802778
1001_w0000,1001,-0.2460904121398925,50.19378662109375,4,-1.624705322165136,1.290147835016946
1001_w0000,1001,-0.2263412475585937,48.2188720703125,4,-1.482336601668113,1.09358254610508
1001_w0000,1001,-0.2263412475585937,47.033935546875,4,-1.482336601668113,0.9756445877364128
1001_w0000,1001,-0.2164664268493652,45.45399475097656,4,-1.4111505226963659,0.8183914453730808
1001_w0000,1001,-0.2164664268493652,43.87406921386719,4,-1.4111505226963659,0.6611398217328143
1001_w0000,1001,-0.2164664268493652,42.29414367675781,4,-1.4111505226963659,0.5038881980925477
1001_w0000,1001,-0.2164664268493652,40.714202880859375,4,-1.4111505226963659,0.3466350557292157
1001_w0000,1001,-0.1967172622680664,39.52925109863281,4,-1.268781802199343,0.22869557863748305
1001_w0000,1001,-0.1967172622680664,38.739288330078125,4,-1.268781802199343,0.15006976681734976
1001_w0000,1001,-0.1868429183959961,37.94932556152344,4,-1.1975991606740668,0.0714439549972165
1001_w0000,1001,-0.1769680976867675,37.55433654785156,4,-1.126413081702319,0.032130289725617135
1001_w0000,1001,-0.1769680976867675,36.76437377929688,4,-1.126413081702319,-0.046495522094515435
1001_w0000,1001,-0.1670937538146972,36.36940002441406,4,-1.0552304401770431,-0.08580766864305008
1001_w0000,1001,-0.1572189331054687,36.36940002441406,4,-0.984044361205296,-0.08580766864305008
1001_w0000,1001,-0.1473445892333984,35.97441101074219,4,-0.9128617196800203,-0.1251213339146494
1001_w0000,1001,-0.1177206039428711,35.97441101074219,4,-0.6993069202112501,-0.1251213339146494
1001_w0000,1001,-0.0979714393615722,35.579437255859375,4,-0.5569381997142263,-0.16443348046318335
1001_w0000,1001,-0.0880970954895019,35.1844482421875,4,-0.4857555581889504,-0.2037471457347827
1001_w0000,1001,-0.0584735870361328,34.789459228515625,4,-0.2722041961666515,-0.24306081100638205
1001_w0000,1001,-0.0288496017456054,34.39448547363281,4,-0.05864939669788069,-0.282372957554916
1001_w0000,1001,-0.0189752578735351,33.99949645996094,4,0.012533244827395226,-0.32168662282651533
1001_w0000,1001,-0.0189752578735351,33.604522705078125,4,0.012533244827395226,-0.36099876937504927
1001_w0000,1001,0.0007739067077636,33.20953369140625,4,0.1549019653244175,-0.4003124346466486
1001_w0000,1001,0.0106487274169921,32.814544677734375,4,0.22608804429616464,-0.43962609991824797
1001_w0000,1001,0.0205230712890625,32.814544677734375,4,0.2972706858214412,-0.43962609991824797
1001_w0000,1001,0.0205230712890625,32.02458190917969,4,0.2972706858214412,-0.5182519117383813
1001_w0000,1001,0.0205230712890625,32.02458190917969,4,0.2972706858214412,-0.5182519117383813
1001_w0000,1001,0.0106487274169921,32.02458190917969,4,0.22608804429616464,-0.5182519117383813
1001_w0000,1001,0.0007739067077636,31.629608154296875,4,0.1549019653244175,-0.5575640582869152
1001_w0000,1001,-0.0288496017456054,31.234619140625,4,-0.05864939669788069,-0.5968777235585145
1001_w0000,1001,-0.0485987663269043,30.839630126953125,4,-0.2010181171949044,-0.636191388830114
1001_w0000,1001,-0.0683479309082031,30.839630126953125,4,-0.3433868376919274,-0.636191388830114
1001_w0000,1001,-0.0782227516174316,30.839630126953125,4,-0.4145729166636745,-0.636191388830114
1001_w0000,1001,-0.0880970954895019,30.839630126953125,4,-0.4857555581889504,-0.636191388830114
1001_w0000,1001,-0.0979714393615722,30.444656372070312,4,-0.5569381997142263,-0.6755035353786478
1001_w0000,1001,-0.0979714393615722,30.04966735839844,4,-0.5569381997142263,-0.7148172006502468
1001_w0000,1001,-0.0880970954895019,30.04966735839844,4,-0.4857555581889504,-0.7148172006502468
1001_w0000,1001,-0.0880970954895019,30.04966735839844,4,-0.4857555581889504,-0.7148172006502468
1001_w0000,1001,-0.0880970954895019,30.04966735839844,4,-0.4857555581889504,-0.7148172006502468
1001_w0000,1001,-0.0782227516174316,29.654693603515625,4,-0.4145729166636745,-0.7541293471987811
1001_w0000,1001,-0.0782227516174316,29.25970458984375,4,-0.4145729166636745,-0.7934430124703805
1001_w0000,1001,-0.0880970954895019,29.654693603515625,4,-0.4857555581889504,-0.7541293471987811
1001_w0000,1001,-0.0880970954895019,29.654693603515625,4,-0.4857555581889504,-0.7541293471987811
1001_w0000,1001,-0.0782227516174316,29.25970458984375,4,-0.4145729166636745,-0.7934430124703805
1001_w0000,1001,-0.0683479309082031,29.25970458984375,4,-0.3433868376919274,-0.7934430124703805
1001_w0000,1001,-0.0584735870361328,29.25970458984375,4,-0.2722041961666515,-0.7934430124703805
1001_w0000,1001,-0.0584735870361328,29.654693603515625,4,-0.2722041961666515,-0.7541293471987811
1001_w0000,1001,-0.0683479309082031,30.04966735839844,4,-0.3433868376919274,-0.7148172006502468
1001_w0000,1001,-0.0683479309082031,30.04966735839844,4,-0.3433868376919274,-0.7148172006502468
1001_w0000,1001,-0.0485987663269043,30.444656372070312,4,-0.2010181171949044,-0.6755035353786478
1001_w0000,1001,0.0007739067077636,31.234619140625,4,0.1549019653244175,-0.5968777235585145
1001_w0000,1001,0.0995197296142578,31.629608154296875,4,0.8667455678095339,-0.5575640582869152
1001_w0000,1001,0.2377638816833496,32.814544677734375,4,1.8633266112886964,-0.43962609991824797
1001_w0000,1001,0.346384048461914,33.604522705078125,4,2.6463528552990883,-0.36099876937504927
1001_w0000,1001,0.464879035949707,34.39448547363281,4,3.5005651782812275,-0.282372957554916
1001_w0000,1001,0.5833735466003418,35.1844482421875,4,4.354774063816896,-0.2037471457347827
1001_w0000,1001,0.7018685340881348,36.36940002441406,4,5.208986386799035,-0.08580766864305008
1001_w0000,1001,0.830237865447998,36.76437377929688,4,6.13438135130645,-0.046495522094515435
1001_w0000,1001,0.8993597030639648,37.55433654785156,4,6.6326701543227955,0.032130289725617135
1001_w0000,1001,0.9191088676452636,38.34431457519531,4,6.775038874819819,0.11075762026881585
1001_w0000,1001,0.8993597030639648,38.34431457519531,4,6.6326701543227955,0.11075762026881585
1001_w0000,1001,0.6426210403442383,38.739288330078125,4,4.781880225307965,0.15006976681734976
1001_w0000,1001,0.1785163879394531,39.52925109863281,4,1.4362204497976268,0.22869557863748305
1001_w0000,1001,-0.0683479309082031,39.13427734375,4,-0.3433868376919274,0.18938343208894912
1001_w0000,1001,-0.1374697685241699,38.34431457519531,4,-0.841675640708273,0.11075762026881585
1001_w0000,1001,-0.1473445892333984,37.94932556152344,4,-0.9128617196800203,0.0714439549972165
1001_w0000,1001,-0.1275954246520996,37.15936279296875,4,-0.7704929991829972,-0.007181856822916791
1001_w0000,1001,-0.1177206039428711,36.76437377929688,4,-0.6993069202112501,-0.046495522094515435
1001_w0000,1001,-0.1572189331054687,35.97441101074219,4,-0.984044361205296,-0.1251213339146494
1001_w0000,1001,-0.1769680976867675,35.1844482421875,4,-1.126413081702319,-0.2037471457347827
1001_w0000,1001,-0.1868429183959961,34.39448547363281,4,-1.1975991606740668,-0.282372957554916
1001_w0000,1001,-0.1868429183959961,33.604522705078125,4,-1.1975991606740668,-0.36099876937504927
1001_w0000,1001,-0.1868429183959961,33.20953369140625,4,-1.1975991606740668,-0.4003124346466486
1001_w0000,1001,-0.2065920829772949,32.814544677734375,4,-1.3399678811710898,-0.43962609991824797
1001_w0000,1001,-0.2065920829772949,32.41957092285156,4,-1.3399678811710898,-0.4789382464667819
1001_w0000,1001,-0.1967172622680664,32.02458190917969,4,-1.268781802199343,-0.5182519117383813
1001_w0000,1001,-0.1967172622680664,32.02458190917969,4,-1.268781802199343,-0.5182519117383813
1001_w0000,1001,-0.2065920829772949,32.02458190917969,4,-1.3399678811710898,-0.5182519117383813
1001_w0000,1001,-0.2065920829772949,32.41957092285156,4,-1.3399678811710898,-0.4789382464667819
1001_w0000,1001,-0.2164664268493652,32.41957092285156,4,-1.4111505226963659,-0.4789382464667819
1001_w0000,1001,-0.2263412475585937,32.41957092285156,4,-1.482336601668113,-0.4789382464667819
1001_w0000,1001,-0.2164664268493652,32.814544677734375,4,-1.4111505226963659,-0.43962609991824797
1001_w0000,1001,-0.2263412475585937,33.20953369140625,4,-1.482336601668113,-0.4003124346466486
1001_w0000,1001,-0.236215591430664,32.814544677734375,4,-1.5535192431933889,-0.43962609991824797
1001_w0000,1001,-0.2460904121398925,32.814544677734375,4,-1.624705322165136,-0.43962609991824797
1001_w0000,1001,-0.2559647560119629,32.41957092285156,4,-1.6958879636904125,-0.4789382464667819
1001_w0000,1001,-0.2460904121398925,32.41957092285156,4,-1.624705322165136,-0.4789382464667819
1001_w0000,1001,-0.2460904121398925,32.02458190917969,4,-1.624705322165136,-0.5182519117383813
1001_w0000,1001,-0.2460904121398925,32.02458190917969,4,-1.624705322165136,-0.5182519117383813
1001_w0000,1001,-0.2460904121398925,31.629608154296875,4,-1.624705322165136,-0.5575640582869152
1001_w0000,1001,-0.236215591430664,31.234619140625,4,-1.5535192431933889,-0.5968777235585145
1001_w0000,1001,-0.2065920829772949,31.234619140625,4,-1.3399678811710898,-0.5968777235585145
1001_w0000,1001,-0.1769680976867675,31.234619140625,4,-1.126413081702319,-0.5968777235585145
1001_w0000,1001,-0.1473445892333984,30.839630126953125,4,-0.9128617196800203,-0.636191388830114
1001_w0000,1001,-0.1275954246520996,30.839630126953125,4,-0.7704929991829972,-0.636191388830114
1001_w0000,1001,-0.0979714393615722,30.444656372070312,4,-0.5569381997142263,-0.6755035353786478
1001_w0000,1001,-0.0584735870361328,30.444656372070312,4,-0.2722041961666515,-0.6755035353786478
1001_w0000,1001,-0.0288496017456054,30.839630126953125,4,-0.05864939669788069,-0.636191388830114
1001_w0000,1001,-0.0189752578735351,30.839630126953125,4,0.012533244827395226,-0.636191388830114
1001_w0000,1001,-0.0091004371643066,30.839630126953125,4,0.0837193237991423,-0.636191388830114
1001_w0000,1001,0.0106487274169921,30.839630126953125,4,0.22608804429616464,-0.636191388830114
1001_w0000,1001,0.0007739067077636,30.839630126953125,4,0.1549019653244175,-0.636191388830114
1001_w0000,1001,-0.0288496017456054,30.839630126953125,4,-0.05864939669788069,-0.636191388830114
1001_w0000,1001,-0.0387244224548339,30.839630126953125,4,-0.12983547566962778,-0.636191388830114
1001_w0000,1001,-0.0387244224548339,31.234619140625,4,-0.12983547566962778,-0.5968777235585145
1001_w0000,1001,-0.0387244224548339,31.234619140625,4,-0.12983547566962778,-0.5968777235585145
1001_w0000,1001,-0.0485987663269043,31.234619140625,4,-0.2010181171949044,-0.5968777235585145
1001_w0000,1001,-0.0387244224548339,31.234619140625,4,-0.12983547566962778,-0.5968777235585145
1001_w0000,1001,-0.0387244224548339,31.234619140625,4,-0.12983547566962778,-0.5968777235585145
1001_w0000,1001,-0.0387244224548339,30.444656372070312,4,-0.12983547566962778,-0.6755035353786478
1001_w0000,1001,-0.0387244224548339,30.839630126953125,4,-0.12983547566962778,-0.636191388830114
1001_w0000,1001,-0.0387244224548339,30.839630126953125,4,-0.12983547566962778,-0.636191388830114
1001_w0000,1001,-0.0387244224548339,30.839630126953125,4,-0.12983547566962778,-0.636191388830114
1001_w0000,1001,-0.0288496017456054,30.839630126953125,4,-0.05864939669788069,-0.636191388830114
1001_w0000,1001,-0.0288496017456054,30.839630126953125,4,-0.05864939669788069,-0.636191388830114
1001_w0000,1001,-0.0387244224548339,30.839630126953125,4,-0.12983547566962778,-0.636191388830114
1001_w0000,1001,-0.0288496017456054,30.839630126953125,4,-0.05864939669788069,-0.636191388830114
1001_w0000,1001,-0.0387244224548339,30.839630126953125,4,-0.12983547566962778,-0.636191388830114
1001_w0000,1001,-0.0387244224548339,30.839630126953125,4,-0.12983547566962778,-0.636191388830114
1001_w0000,1001,-0.0288496017456054,30.839630126953125,4,-0.05864939669788069,-0.636191388830114
1001_w0000,1001,-0.0288496017456054,30.839630126953125,4,-0.05864939669788069,-0.636191388830114
1001_w0000,1001,-0.0288496017456054,30.839630126953125,4,-0.05864939669788069,-0.636191388830114
1001_w0000,1001,-0.0189752578735351,30.839630126953125,4,0.012533244827395226,-0.636191388830114
1001_w0000,1001,-0.0288496017456054,30.839630126953125,4,-0.05864939669788069,-0.636191388830114
1001_w0000,1001,-0.0189752578735351,30.839630126953125,4,0.012533244827395226,-0.636191388830114
1001_w0000,1001,-0.0189752578735351,30.839630126953125,4,0.012533244827395226,-0.636191388830114
1001_w0000,1001,-0.0288496017456054,30.839630126953125,4,-0.05864939669788069,-0.636191388830114
1001_w0000,1001,-0.0288496017456054,30.839630126953125,4,-0.05864939669788069,-0.636191388830114
1001_w0000,1001,-0.0288496017456054,30.839630126953125,4,-0.05864939669788069,-0.636191388830114
1001_w0000,1001,-0.0288496017456054,30.839630126953125,4,-0.05864939669788069,-0.636191388830114
1001_w0000,1001,-0.0288496017456054,30.839630126953125,4,-0.05864939669788069,-0.636191388830114
1001_w0000,1001,-0.0288496017456054,31.234619140625,4,-0.05864939669788069,-0.5968777235585145
1001_w0000,1001,-0.0387244224548339,31.234619140625,4,-0.12983547566962778,-0.5968777235585145
1001_w0000,1001,-0.0288496017456054,31.234619140625,4,-0.05864939669788069,-0.5968777235585145
1001_w0000,1001,-0.0387244224548339,31.629608154296875,4,-0.12983547566962778,-0.5575640582869152
1001_w0000,1001,-0.0288496017456054,31.629608154296875,4,-0.05864939669788069,-0.5575640582869152
1001_w0000,1001,-0.0387244224548339,31.629608154296875,4,-0.12983547566962778,-0.5575640582869152
1001_w0000,1001,-0.0485987663269043,31.234619140625,4,-0.2010181171949044,-0.5968777235585145
1001_w0000,1001,-0.0485987663269043,31.629608154296875,4,-0.2010181171949044,-0.5575640582869152
1001_w0000,1001,-0.0387244224548339,31.629608154296875,4,-0.12983547566962778,-0.5575640582869152
1001_w0000,1001,-0.0485987663269043,31.629608154296875,4,-0.2010181171949044,-0.5575640582869152
1001_w0000,1001,-0.0387244224548339,31.629608154296875,4,-0.12983547566962778,-0.5575640582869152
1001_w0000,1001,-0.0387244224548339,31.629608154296875,4,-0.12983547566962778,-0.5575640582869152
1001_w0000,1001,-0.0485987663269043,31.629608154296875,4,-0.2010181171949044,-0.5575640582869152
1001_w0000,1001,-0.0387244224548339,31.629608154296875,4,-0.12983547566962778,-0.5575640582869152
1001_w0000,1001,-0.0387244224548339,31.629608154296875,4,-0.12983547566962778,-0.5575640582869152
1001_w0000,1001,-0.0387244224548339,31.629608154296875,4,-0.12983547566962778,-0.5575640582869152
1001_w0000,1001,-0.0485987663269043,31.629608154296875,4,-0.2010181171949044,-0.5575640582869152
1001_w0000,1001,-0.0387244224548339,31.629608154296875,4,-0.12983547566962778,-0.5575640582869152
1001_w0000,1001,-0.0387244224548339,31.629608154296875,4,-0.12983547566962778,-0.5575640582869152
1001_w0000,1001,-0.0387244224548339,31.629608154296875,4,-0.12983547566962778,-0.5575640582869152
1001_w0000,1001,-0.0387244224548339,31.629608154296875,4,-0.12983547566962778,-0.5575640582869152
1001_w0000,1001,-0.0387244224548339,31.629608154296875,4,-0.12983547566962778,-0.5575640582869152
1001_w0000,1001,-0.0387244224548339,31.629608154296875,4,-0.12983547566962778,-0.5575640582869152
1001_w0000,1001,-0.0387244224548339,31.629608154296875,4,-0.12983547566962778,-0.5575640582869152
1001_w0000,1001,-0.0387244224548339,32.02458190917969,4,-0.12983547566962778,-0.5182519117383813
1001_w0000,1001,-0.0387244224548339,32.02458190917969,4,-0.12983547566962778,-0.5182519117383813
1001_w0000,1001,-0.0387244224548339,32.02458190917969,4,-0.12983547566962778,-0.5182519117383813
1001_w0000,1001,-0.0387244224548339,32.02458190917969,4,-0.12983547566962778,-0.5182519117383813
1001_w0000,1001,-0.0387244224548339,32.02458190917969,4,-0.12983547566962778,-0.5182519117383813
1001_w0000,1001,-0.0485987663269043,32.02458190917969,4,-0.2010181171949044,-0.5182519117383813
1001_w0000,1001,-0.0485987663269043,32.02458190917969,4,-0.2010181171949044,-0.5182519117383813
1001_w0000,1001,-0.0387244224548339,32.02458190917969,4,-0.12983547566962778,-0.5182519117383813
1001_w0000,1001,-0.0387244224548339,32.02458190917969,4,-0.12983547566962778,-0.5182519117383813
1001_w0000,1001,-0.0387244224548339,32.02458190917969,4,-0.12983547566962778,-0.5182519117383813
1001_w0000,1001,-0.0387244224548339,32.02458190917969,4,-0.12983547566962778,-0.5182519117383813
1001_w0000,1001,-0.0387244224548339,32.41957092285156,4,-0.12983547566962778,-0.4789382464667819
1001_w0000,1001,-0.0387244224548339,32.02458190917969,4,-0.12983547566962778,-0.5182519117383813
1001_w0000,1001,-0.0387244224548339,32.41957092285156,4,-0.12983547566962778,-0.4789382464667819
1001_w0000,1001,-0.0485987663269043,32.41957092285156,4,-0.2010181171949044,-0.4789382464667819
1001_w0000,1001,-0.0485987663269043,32.41957092285156,4,-0.2010181171949044,-0.4789382464667819
1001_w0000,1001,-0.0387244224548339,32.41957092285156,4,-0.12983547566962778,-0.4789382464667819
1001_w0000,1001,-0.0485987663269043,32.41957092285156,4,-0.2010181171949044,-0.4789382464667819
1001_w0000,1001,-0.0485987663269043,32.41957092285156,4,-0.2010181171949044,-0.4789382464667819
1001_w0000,1001,-0.0485987663269043,32.41957092285156,4,-0.2010181171949044,-0.4789382464667819
1001_w0000,1001,-0.0485987663269043,32.41957092285156,4,-0.2010181171949044,-0.4789382464667819
1001_w0000,1001,-0.0485987663269043,32.41957092285156,4,-0.2010181171949044,-0.4789382464667819
1001_w0000,1001,-0.0485987663269043,32.41957092285156,4,-0.2010181171949044,-0.4789382464667819
1001_w0000,1001,-0.0485987663269043,32.41957092285156,4,-0.2010181171949044,-0.4789382464667819
1001_w0000,1001,-0.0485987663269043,32.41957092285156,4,-0.2010181171949044,-0.4789382464667819
1001_w0000,1001,-0.0485987663269043,32.02458190917969,4,-0.2010181171949044,-0.5182519117383813
1001_w0000,1001,-0.0485987663269043,32.41957092285156,4,-0.2010181171949044,-0.4789382464667819
1001_w0000,1001,-0.0584735870361328,32.41957092285156,4,-0.2722041961666515,-0.4789382464667819
1001_w0000,1001,-0.0485987663269043,32.41957092285156,4,-0.2010181171949044,-0.4789382464667819
1001_w0000,1001,-0.0485987663269043,32.41957092285156,4,-0.2010181171949044,-0.4789382464667819
1001_w0000,1001,-0.0584735870361328,32.814544677734375,4,-0.2722041961666515,-0.43962609991824797
1001_w0000,1001,-0.0584735870361328,32.814544677734375,4,-0.2722041961666515,-0.43962609991824797
1001_w0000,1001,-0.0584735870361328,32.814544677734375,4,-0.2722041961666515,-0.43962609991824797
1001_w0000,1001,-0.0584735870361328,32.814544677734375,4,-0.2722041961666515,-0.43962609991824797
1001_w0000,1001,-0.0485987663269043,32.814544677734375,4,-0.2010181171949044,-0.43962609991824797
1001_w0000,1001,-0.0387244224548339,32.814544677734375,4,-0.12983547566962778,-0.43962609991824797
1001_w0000,1001,-0.0485987663269043,32.814544677734375,4,-0.2010181171949044,-0.43962609991824797
1001_w0000,1001,-0.0485987663269043,32.814544677734375,4,-0.2010181171949044,-0.43962609991824797
1001_w0000,1001,-0.0485987663269043,32.814544677734375,4,-0.2010181171949044,-0.43962609991824797
1001_w0000,1001,-0.0387244224548339,32.814544677734375,4,-0.12983547566962778,-0.43962609991824797
1001_w0000,1001,-0.0485987663269043,32.814544677734375,4,-0.2010181171949044,-0.43962609991824797
1001_w0000,1001,-0.0485987663269043,32.814544677734375,4,-0.2010181171949044,-0.43962609991824797
1001_w0000,1001,-0.0485987663269043,33.20953369140625,4,-0.2010181171949044,-0.4003124346466486
1001_w0000,1001,-0.0584735870361328,33.20953369140625,4,-0.2722041961666515,-0.4003124346466486
1001_w0000,1001,-0.0485987663269043,33.20953369140625,4,-0.2010181171949044,-0.4003124346466486
1001_w0000,1001,-0.0387244224548339,33.20953369140625,4,-0.12983547566962778,-0.4003124346466486
1001_w0000,1001,-0.0387244224548339,33.20953369140625,4,-0.12983547566962778,-0.4003124346466486
1001_w0000,1001,-0.0485987663269043,33.20953369140625,4,-0.2010181171949044,-0.4003124346466486
1001_w0000,1001,-0.0387244224548339,33.20953369140625,4,-0.12983547566962778,-0.4003124346466486
1001_w0000,1001,-0.0387244224548339,33.20953369140625,4,-0.12983547566962778,-0.4003124346466486
1001_w0000,1001,-0.0387244224548339,33.20953369140625,4,-0.12983547566962778,-0.4003124346466486
1001_w0000,1001,-0.0485987663269043,33.20953369140625,4,-0.2010181171949044,-0.4003124346466486
1001_w0000,1001,-0.0485987663269043,33.604522705078125,4,-0.2010181171949044,-0.36099876937504927
1001_w0000,1001,-0.0485987663269043,33.604522705078125,4,-0.2010181171949044,-0.36099876937504927
1001_w0000,1001,-0.0485987663269043,33.604522705078125,4,-0.2010181171949044,-0.36099876937504927
1001_w0000,1001,-0.0387244224548339,33.604522705078125,4,-0.12983547566962778,-0.36099876937504927
1001_w0000,1001,-0.0288496017456054,33.604522705078125,4,-0.05864939669788069,-0.36099876937504927
1001_w0000,1001,-0.0387244224548339,33.604522705078125,4,-0.12983547566962778,-0.36099876937504927
1001_w0000,1001,-0.0485987663269043,33.604522705078125,4,-0.2010181171949044,-0.36099876937504927
1001_w0000,1001,-0.0485987663269043,33.604522705078125,4,-0.2010181171949044,-0.36099876937504927
1001_w0000,1001,-0.0485987663269043,33.604522705078125,4,-0.2010181171949044,-0.36099876937504927
1001_w0000,1001,-0.0387244224548339,33.604522705078125,4,-0.12983547566962778,-0.36099876937504927
1001_w0000,1001,-0.0387244224548339,33.99949645996094,4,-0.12983547566962778,-0.32168662282651533
1001_w0000,1001,-0.0189752578735351,33.99949645996094,4,0.012533244827395226,-0.32168662282651533
1001_w0000,1001,0.0106487274169921,34.39448547363281,4,0.22608804429616464,-0.282372957554916
1001_w0000,1001,0.0106487274169921,34.789459228515625,4,0.22608804429616464,-0.24306081100638205
1001_w0000,1001,0.0007739067077636,35.97441101074219,4,0.1549019653244175,-0.1251213339146494
1001_w0000,1001,0.0205230712890625,36.76437377929688,4,0.2972706858214412,-0.046495522094515435
1001_w0000,1001,0.0205230712890625,37.94932556152344,4,0.2972706858214412,0.0714439549972165
1001_w0000,1001,0.0205230712890625,39.92424011230469,4,0.2972706858214412,0.26800924390908243
1001_w0000,1001,0.0205230712890625,41.89915466308594,4,0.2972706858214412,0.46457453282094835
1001_w0000,1001,0.0106487274169921,44.26905822753906,4,0.22608804429616464,0.7004534870044136
1001_w0000,1001,0.0007739067077636,47.42890930175781,4,0.1549019653244175,1.0149567342849468
1001_w0000,1001,-0.0387244224548339,50.588775634765625,4,-0.12983547566962778,1.3294615002885453
1001_w0000,1001,-0.0683479309082031,53.74864196777344,4,-0.3433868376919274,1.643966266292144
1001_w0000,1001,-0.0880970954895019,56.90850830078125,4,-0.4857555581889504,1.9584710322957424
1001_w0000,1001,-0.0782227516174316,60.46334838867188,4,-0.4145729166636745,2.3122879448478755
1001_w0000,1001,-0.0880970954895019,63.62319946289063,4,-0.4857555581889504,2.6267911921284086
1001_w0000,1001,-0.0880970954895019,65.99310302734375,4,-0.4857555581889504,2.8626701463118733
1001_w0000,1001,-0.0880970954895019,67.968017578125,4,-0.4857555581889504,3.0592354352237394
1001_w0000,1001,-0.0880970954895019,69.94293212890625,4,-0.4857555581889504,3.255800724135605
1001_w0000,1001,-0.0683479309082031,71.9178466796875,4,-0.3433868376919274,3.452366013047471
1001_w0000,1001,-0.0584735870361328,72.31283569335938,4,-0.2722041961666515,3.4916796783190702
1001_w0000,1001,-0.0683479309082031,72.31283569335938,4,-0.3433868376919274,3.4916796783190702
1001_w0000,1001,-0.0485987663269043,72.70782470703125,4,-0.2010181171949044,3.5309933435906697
1001_w0000,1001,0.1390180587768554,71.9178466796875,4,1.1514830088035801,3.452366013047471
1001_w0000,1001,0.464879035949707,70.73291015625,4,3.5005651782812275,3.3344280546788037
1001_w0000,1001,0.6524958610534668,69.94293212890625,4,4.853066304279713,3.255800724135605
1001_w0000,1001,0.4945025444030761,69.1529541015625,4,3.714116540303527,3.1771733935924065
1001_w0000,1001,0.1883907318115234,67.968017578125,4,1.5074030913229026,3.0592354352237394
1001_w0000,1001,0.0205230712890625,66.38809204101562,4,0.2972706858214412,2.901983811583473
1001_w0000,1001,0.0007739067077636,65.20315551757812,4,0.1549019653244175,2.7840458532148054
1001_w0000,1001,-0.0189752578735351,64.0181884765625,4,0.012533244827395226,2.6661048574000072
1001_w0000,1001,-0.0387244224548339,62.04327392578125,4,-0.12983547566962778,2.4695395684881416
1001_w0000,1001,-0.0584735870361328,60.46334838867188,4,-0.2722041961666515,2.3122879448478755
1001_w0000,1001,-0.0683479309082031,58.8834228515625,4,-0.3433868376919274,2.1550363212076085
1001_w0000,1001,-0.0584735870361328,57.30348205566406,4,-0.2722041961666515,1.9977831788442764
1001_w0000,1001,-0.0683479309082031,55.72355651855469,4,-0.3433868376919274,1.8405315552040098
1001_w0000,1001,-0.0683479309082031,53.74864196777344,4,-0.3433868376919274,1.643966266292144
1001_w0000,1001,-0.0584735870361328,52.168701171875,4,-0.2722041961666515,1.4867131239288118
1001_w0000,1001,-0.0584735870361328,50.588775634765625,4,-0.2722041961666515,1.3294615002885453
1001_w0000,1001,-0.0584735870361328,48.613861083984375,4,-0.2722041961666515,1.1328962113766794
1001_w0000,1001,-0.0485987663269043,47.033935546875,4,-0.2010181171949044,0.9756445877364128
1001_w0000,1001,-0.0485987663269043,45.45399475097656,4,-0.2010181171949044,0.8183914453730808
1001_w0000,1001,-0.0387244224548339,43.87406921386719,4,-0.12983547566962778,0.6611398217328143
1001_w0000,1001,-0.0485987663269043,42.68911743164063,4,-0.2010181171949044,0.5432003446410824
1001_w0000,1001,-0.0387244224548339,41.89915466308594,4,-0.12983547566962778,0.46457453282094835
1001_w0000,1001,-0.0288496017456054,41.10919189453125,4,-0.05864939669788069,0.38594872100081506
1001_w0000,1001,-0.0387244224548339,40.31922912597656,4,-0.12983547566962778,0.3073229091806818
1001_w0000,1001,-0.0387244224548339,39.92424011230469,4,-0.12983547566962778,0.26800924390908243
1001_w0000,1001,-0.0288496017456054,39.13427734375,4,-0.05864939669788069,0.18938343208894912
1001_w0000,1001,-0.0288496017456054,39.13427734375,4,-0.05864939669788069,0.18938343208894912
1001_w0000,1001,-0.0189752578735351,38.34431457519531,4,0.012533244827395226,0.11075762026881585
1001_w0000,1001,-0.0091004371643066,37.94932556152344,4,0.0837193237991423,0.0714439549972165
1001_w0000,1001,0.0007739067077636,37.55433654785156,4,0.1549019653244175,0.032130289725617135
1001_w0000,1001,0.0106487274169921,37.15936279296875,4,0.22608804429616464,-0.007181856822916791
1001_w0000,1001,0.0205230712890625,36.76437377929688,4,0.2972706858214412,-0.046495522094515435
1001_w0000,1001,0.0402722358703613,36.76437377929688,4,0.43963940631846427,-0.046495522094515435
1001_w0000,1001,0.0600214004516601,35.97441101074219,4,0.5820081268154873,-0.1251213339146494
1001_w0000,1001,0.0698962211608886,35.579437255859375,4,0.6531942057872343,-0.16443348046318335
1001_w0000,1001,0.0797705650329589,35.1844482421875,4,0.7243768473125103,-0.2037471457347827
1001_w0000,1001,0.0896453857421875,34.789459228515625,4,0.7955629262842581,-0.24306081100638205
1001_w0000,1001,0.0995197296142578,34.39448547363281,4,0.8667455678095339,-0.282372957554916
1001_w0000,1001,0.0995197296142578,33.604522705078125,4,0.8667455678095339,-0.36099876937504927
1001_w0000,1001,0.0995197296142578,33.20953369140625,4,0.8667455678095339,-0.4003124346466486
1001_w0000,1001,0.0995197296142578,33.20953369140625,4,0.8667455678095339,-0.4003124346466486
1001_w0000,1001,0.0797705650329589,33.20953369140625,4,0.7243768473125103,-0.4003124346466486
1001_w0000,1001,0.0600214004516601,32.814544677734375,4,0.5820081268154873,-0.43962609991824797
1001_w0000,1001,0.030397891998291,32.41957092285156,4,0.36845676479318834,-0.4789382464667819
1001_w0000,1001,0.0007739067077636,32.02458190917969,4,0.1549019653244175,-0.5182519117383813
1001_w0000,1001,-0.0091004371643066,31.629608154296875,4,0.0837193237991423,-0.5575640582869152
1001_w0000,1001,-0.0091004371643066,31.629608154296875,4,0.0837193237991423,-0.5575640582869152
1001_w0000,1001,-0.0288496017456054,31.629608154296875,4,-0.05864939669788069,-0.5575640582869152
1001_w0000,1001,-0.0288496017456054,31.234619140625,4,-0.05864939669788069,-0.5968777235585145
1001_w0000,1001,-0.0387244224548339,31.234619140625,4,-0.12983547566962778,-0.5968777235585145
1001_w0000,1001,-0.0387244224548339,31.234619140625,4,-0.12983547566962778,-0.5968777235585145
1001_w0000,1001,-0.0387244224548339,31.234619140625,4,-0.12983547566962778,-0.5968777235585145
1001_w0000,1001,-0.0485987663269043,30.839630126953125,4,-0.2010181171949044,-0.636191388830114
1001_w0000,1001,-0.0584735870361328,30.839630126953125,4,-0.2722041961666515,-0.636191388830114
1001_w0000,1001,-0.0485987663269043,30.444656372070312,4,-0.2010181171949044,-0.6755035353786478
1001_w0000,1001,-0.0387244224548339,30.444656372070312,4,-0.12983547566962778,-0.6755035353786478
1001_w0000,1001,-0.0584735870361328,30.04966735839844,4,-0.2722041961666515,-0.7148172006502468
1001_w0000,1001,-0.0485987663269043,30.04966735839844,4,-0.2010181171949044,-0.7148172006502468
1001_w0000,1001,-0.0584735870361328,29.654693603515625,4,-0.2722041961666515,-0.7541293471987811
1001_w0000,1001,-0.0485987663269043,29.654693603515625,4,-0.2010181171949044,-0.7541293471987811
1001_w0000,1001,-0.0485987663269043,29.654693603515625,4,-0.2010181171949044,-0.7541293471987811
1001_w0000,1001,-0.0584735870361328,29.654693603515625,4,-0.2722041961666515,-0.7541293471987811
1001_w0000,1001,-0.0584735870361328,29.654693603515625,4,-0.2722041961666515,-0.7541293471987811
1001_w0000,1001,-0.0584735870361328,29.654693603515625,4,-0.2722041961666515,-0.7541293471987811
1001_w0000,1001,-0.0485987663269043,29.654693603515625,4,-0.2010181171949044,-0.7541293471987811
1001_w0000,1001,-0.0485987663269043,29.25970458984375,4,-0.2010181171949044,-0.7934430124703805
1001_w0000,1001,-0.0584735870361328,29.654693603515625,4,-0.2722041961666515,-0.7541293471987811
1001_w0000,1001,-0.0584735870361328,29.654693603515625,4,-0.2722041961666515,-0.7541293471987811
1001_w0000,1001,-0.0584735870361328,29.654693603515625,4,-0.2722041961666515,-0.7541293471987811
1001_w0000,1001,-0.0584735870361328,29.654693603515625,4,-0.2722041961666515,-0.7541293471987811
1001_w0000,1001,-0.0584735870361328,29.654693603515625,4,-0.2722041961666515,-0.7541293471987811
1001_w0000,1001,-0.0584735870361328,29.654693603515625,4,-0.2722041961666515,-0.7541293471987811
1001_w0000,1001,-0.0584735870361328,29.654693603515625,4,-0.2722041961666515,-0.7541293471987811
1001_w0000,1001,-0.0683479309082031,29.654693603515625,4,-0.3433868376919274,-0.7541293471987811
1001_w0000,1001,-0.0683479309082031,29.654693603515625,4,-0.3433868376919274,-0.7541293471987811
1001_w0000,1001,-0.0683479309082031,29.654693603515625,4,-0.3433868376919274,-0.7541293471987811
1001_w0000,1001,-0.0584735870361328,29.654693603515625,4,-0.2722041961666515,-0.7541293471987811
1001_w0000,1001,-0.0683479309082031,29.654693603515625,4,-0.3433868376919274,-0.7541293471987811
1001_w0000,1001,-0.0683479309082031,29.654693603515625,4,-0.3433868376919274,-0.7541293471987811
1001_w0000,1001,-0.0584735870361328,29.654693603515625,4,-0.2722041961666515,-0.7541293471987811
1001_w0000,1001,-0.0584735870361328,29.654693603515625,4,-0.2722041961666515,-0.7541293471987811
1001_w0000,1001,-0.0485987663269043,29.654693603515625,4,-0.2010181171949044,-0.7541293471987811
1001_w0000,1001,-0.0485987663269043,29.654693603515625,4,-0.2010181171949044,-0.7541293471987811
1001_w0000,1001,-0.0584735870361328,30.04966735839844,4,-0.2722041961666515,-0.7148172006502468
1001_w0000,1001,-0.0485987663269043,30.04966735839844,4,-0.2010181171949044,-0.7148172006502468
1001_w0000,1001,-0.0387244224548339,30.04966735839844,4,-0.12983547566962778,-0.7148172006502468
1001_w0000,1001,-0.0485987663269043,30.444656372070312,4,-0.2010181171949044,-0.6755035353786478
1001_w0000,1001,-0.0485987663269043,30.04966735839844,4,-0.2010181171949044,-0.7148172006502468
1001_w0000,1001,-0.0485987663269043,30.04966735839844,4,-0.2010181171949044,-0.7148172006502468
1001_w0000,1001,-0.0485987663269043,30.444656372070312,4,-0.2010181171949044,-0.6755035353786478
1001_w0000,1001,-0.0485987663269043,30.04966735839844,4,-0.2010181171949044,-0.7148172006502468
1001_w0000,1001,-0.0584735870361328,30.444656372070312,4,-0.2722041961666515,-0.6755035353786478
1001_w0000,1001,-0.0584735870361328,30.839630126953125,4,-0.2722041961666515,-0.636191388830114
1001_w0000,1001,-0.0485987663269043,30.444656372070312,4,-0.2010181171949044,-0.6755035353786478
1001_w0000,1001,-0.0485987663269043,30.444656372070312,4,-0.2010181171949044,-0.6755035353786478
1001_w0000,1001,-0.0485987663269043,30.444656372070312,4,-0.2010181171949044,-0.6755035353786478
1001_w0000,1001,-0.0485987663269043,30.444656372070312,4,-0.2010181171949044,-0.6755035353786478
1001_w0000,1001,-0.0387244224548339,30.444656372070312,4,-0.12983547566962778,-0.6755035353786478
1001_w0000,1001,-0.0387244224548339,30.444656372070312,4,-0.12983547566962778,-0.6755035353786478
1001_w0000,1001,-0.0387244224548339,30.444656372070312,4,-0.12983547566962778,-0.6755035353786478
1001_w0000,1001,-0.0485987663269043,30.444656372070312,4,-0.2010181171949044,-0.6755035353786478
1001_w0000,1001,-0.0387244224548339,30.839630126953125,4,-0.12983547566962778,-0.636191388830114
1001_w0000,1001,-0.0387244224548339,30.839630126953125,4,-0.12983547566962778,-0.636191388830114
1001_w0000,1001,-0.0387244224548339,30.839630126953125,4,-0.12983547566962778,-0.636191388830114
1001_w0000,1001,0.0007739067077636,30.839630126953125,4,0.1549019653244175,-0.636191388830114
1001_w0000,1001,0.0106487274169921,30.839630126953125,4,0.22608804429616464,-0.636191388830114
1001_w0000,1001,0.0007739067077636,31.234619140625,4,0.1549019653244175,-0.5968777235585145
1001_w0000,1001,0.0007739067077636,31.629608154296875,4,0.1549019653244175,-0.5575640582869152
1001_w0000,1001,0.0106487274169921,31.629608154296875,4,0.22608804429616464,-0.5575640582869152
1001_w0000,1001,0.0106487274169921,32.41957092285156,4,0.22608804429616464,-0.4789382464667819
1001_w0000,1001,0.0205230712890625,33.20953369140625,4,0.2972706858214412,-0.4003124346466486
1001_w0000,1001,0.030397891998291,33.99949645996094,4,0.36845676479318834,-0.32168662282651533
1001_w0000,1001,0.0106487274169921,35.1844482421875,4,0.22608804429616464,-0.2037471457347827
1001_w0000,1001,-0.0091004371643066,36.76437377929688,4,0.0837193237991423,-0.046495522094515435
1001_w0000,1001,-0.0485987663269043,38.739288330078125,4,-0.2010181171949044,0.15006976681734976
1001_w0000,1001,-0.0683479309082031,40.714202880859375,4,-0.3433868376919274,0.3466350557292157
1001_w0000,1001,-0.0683479309082031,42.68911743164063,4,-0.3433868376919274,0.5432003446410824
1001_w0000,1001,-0.0683479309082031,45.45399475097656,4,-0.3433868376919274,0.8183914453730808
1001_w0000,1001,-0.0782227516174316,47.82389831542969,4,-0.4145729166636745,1.0542703995565461
1001_w0000,1001,-0.0880970954895019,50.588775634765625,4,-0.4857555581889504,1.3294615002885453
1001_w0000,1001,-0.0880970954895019,52.95867919921875,4,-0.4857555581889504,1.5653404544720106
1001_w0000,1001,-0.0782227516174316,54.538604736328125,4,-0.4145729166636745,1.7225920781122772
1001_w0000,1001,-0.0782227516174316,56.90850830078125,4,-0.4145729166636745,1.9584710322957424
1001_w0000,1001,-0.0683479309082031,58.09344482421875,4,-0.3433868376919274,2.0764089906644094
1001_w0000,1001,-0.0584735870361328,58.8834228515625,4,-0.2722041961666515,2.1550363212076085
1001_w0000,1001,-0.0683479309082031,59.673370361328125,4,-0.3433868376919274,2.233660614304676
1001_w0000,1001,0.0007739067077636,60.068359375,0,0.1549019653244175,2.2729742795762755
1001_w0000,1001,0.3266348838806152,60.068359375,0,2.503984134802065,2.2729742795762755
1001_w0000,1001,0.5734992027282715,59.673370361328125,0,4.28359142229162,2.233660614304676
1001_w0000,1001,0.5537500381469727,59.673370361328125,0,4.141222701794597,2.233660614304676
1001_w0000,1001,0.2673873901367187,58.8834228515625,0,2.0768779733109954,2.1550363212076085
1001_w0000,1001,0.0797705650329589,58.09344482421875,0,0.7243768473125103,2.0764089906644094
1001_w0000,1001,0.0106487274169921,57.69847106933594,0,0.22608804429616464,2.037096844115876
1001_w0000,1001,0.0007739067077636,56.513519287109375,0,0.1549019653244175,1.919157367024143
1001_w0000,1001,-0.0091004371643066,55.72355651855469,0,0.0837193237991423,1.8405315552040098
1001_w0000,1001,-0.0288496017456054,54.538604736328125,0,-0.05864939669788069,1.7225920781122772
1001_w0000,1001,-0.0288496017456054,53.74864196777344,0,-0.05864939669788069,1.643966266292144
1001_w0000,1001,-0.0387244224548339,52.56369018554688,0,-0.12983547566962778,1.526026789200412
1001_w0000,1001,-0.0387244224548339,50.9837646484375,0,-0.12983547566962778,1.3687751655601446
1001_w0000,1001,-0.0387244224548339,49.40382385253906,0,-0.12983547566962778,1.2115220231968127
1001_w0000,1001,-0.0288496017456054,48.2188720703125,0,-0.05864939669788069,1.09358254610508
1001_w0000,1001,-0.0189752578735351,47.033935546875,0,0.012533244827395226,0.9756445877364128
1001_w0000,1001,-0.0189752578735351,45.45399475097656,0,0.012533244827395226,0.8183914453730808
1001_w0000,1001,-0.0189752578735351,44.26905822753906,0,0.012533244827395226,0.7004534870044136
1001_w0000,1001,-0.0288496017456054,43.0841064453125,0,-0.05864939669788069,0.582514009912681
1001_w0000,1001,-0.0288496017456054,41.50416564941406,0,-0.05864939669788069,0.425260867549349
1001_w0000,1001,-0.0288496017456054,40.31922912597656,0,-0.05864939669788069,0.3073229091806818
1001_w0000,1001,-0.0288496017456054,39.13427734375,0,-0.05864939669788069,0.18938343208894912
1001_w0000,1001,-0.0189752578735351,38.739288330078125,0,0.012533244827395226,0.15006976681734976
1001_w0000,1001,0.0007739067077636,37.55433654785156,0,0.1549019653244175,0.032130289725617135
1001_w0000,1001,-0.0091004371643066,37.15936279296875,0,0.0837193237991423,-0.007181856822916791
1001_w0000,1001,-0.0091004371643066,37.15936279296875,0,0.0837193237991423,-0.007181856822916791
1001_w0000,1001,0.0007739067077636,36.76437377929688,0,0.1549019653244175,-0.046495522094515435
1001_w0000,1001,0.0106487274169921,36.76437377929688,0,0.22608804429616464,-0.046495522094515435
1001_w0000,1001,0.0106487274169921,36.36940002441406,0,0.22608804429616464,-0.08580766864305008
1001_w0000,1001,0.0205230712890625,35.97441101074219,0,0.2972706858214412,-0.1251213339146494
1001_w0000,1001,0.0402722358703613,35.97441101074219,0,0.43963940631846427,-0.1251213339146494
1001_w0000,1001,0.0402722358703613,35.579437255859375,0,0.43963940631846427,-0.16443348046318335
1001_w0000,1001,0.0600214004516601,35.1844482421875,0,0.5820081268154873,-0.2037471457347827
1001_w0000,1001,0.0698962211608886,34.789459228515625,0,0.6531942057872343,-0.24306081100638205
1001_w0000,1001,0.0698962211608886,34.39448547363281,0,0.6531942057872343,-0.282372957554916
1001_w0000,1001,0.0698962211608886,33.99949645996094,0,0.6531942057872343,-0.32168662282651533
1001_w0000,1001,0.0600214004516601,33.604522705078125,0,0.5820081268154873,-0.36099876937504927
1001_w0000,1001,0.0698962211608886,33.604522705078125,0,0.6531942057872343,-0.36099876937504927
1001_w0000,1001,0.0600214004516601,33.20953369140625,0,0.5820081268154873,-0.4003124346466486
1001_w0000,1001,0.0501470565795898,32.814544677734375,0,0.5108254852902113,-0.43962609991824797
1001_w0000,1001,0.030397891998291,32.41957092285156,0,0.36845676479318834,-0.4789382464667819
1001_w0000,1001,0.0106487274169921,32.41957092285156,0,0.22608804429616464,-0.4789382464667819
1001_w0000,1001,-0.0189752578735351,32.41957092285156,0,0.012533244827395226,-0.4789382464667819
1001_w0000,1001,-0.0584735870361328,32.02458190917969,0,-0.2722041961666515,-0.5182519117383813
1001_w0000,1001,-0.0782227516174316,32.02458190917969,0,-0.4145729166636745,-0.5182519117383813
1001_w0000,1001,-0.0880970954895019,32.02458190917969,0,-0.4857555581889504,-0.5182519117383813
1001_w0000,1001,-0.0979714393615722,32.02458190917969,0,-0.5569381997142263,-0.5182519117383813
1001_w0000,1001,-0.1078462600708007,31.629608154296875,0,-0.6281242786859734,-0.5575640582869152
1001_w0000,1001,-0.1078462600708007,31.629608154296875,0,-0.6281242786859734,-0.5575640582869152
1001_w0000,1001,-0.1078462600708007,31.629608154296875,0,-0.6281242786859734,-0.5575640582869152
1001_w0000,1001,-0.1177206039428711,31.234619140625,0,-0.6993069202112501,-0.5968777235585145
1001_w0000,1001,-0.1275954246520996,31.234619140625,0,-0.7704929991829972,-0.5968777235585145
1001_w0000,1001,-0.1275954246520996,31.234619140625,0,-0.7704929991829972,-0.5968777235585145
1001_w0000,1001,-0.1275954246520996,30.839630126953125,0,-0.7704929991829972,-0.636191388830114
1001_w0000,1001,-0.1275954246520996,30.839630126953125,0,-0.7704929991829972,-0.636191388830114
1001_w0000,1001,-0.1275954246520996,30.444656372070312,0,-0.7704929991829972,-0.6755035353786478
1001_w0000,1001,-0.1374697685241699,30.444656372070312,0,-0.841675640708273,-0.6755035353786478
1001_w0000,1001,-0.1275954246520996,30.444656372070312,0,-0.7704929991829972,-0.6755035353786478
1001_w0000,1001,-0.1275954246520996,30.444656372070312,0,-0.7704929991829972,-0.6755035353786478
1001_w0000,1001,-0.1374697685241699,30.04966735839844,0,-0.841675640708273,-0.7148172006502468
1001_w0000,1001,-0.1374697685241699,30.04966735839844,0,-0.841675640708273,-0.7148172006502468
1001_w0000,1001,-0.1177206039428711,30.04966735839844,0,-0.6993069202112501,-0.7148172006502468
1001_w0000,1001,-0.1275954246520996,30.04966735839844,0,-0.7704929991829972,-0.7148172006502468
1001_w0000,1001,-0.1275954246520996,30.04966735839844,0,-0.7704929991829972,-0.7148172006502468
1001_w0000,1001,-0.1275954246520996,30.04966735839844,0,-0.7704929991829972,-0.7148172006502468
1001_w0000,1001,-0.1177206039428711,30.04966735839844,0,-0.6993069202112501,-0.7148172006502468
1001_w0000,1001,-0.1275954246520996,30.04966735839844,0,-0.7704929991829972,-0.7148172006502468
1001_w0000,1001,-0.1374697685241699,30.04966735839844,0,-0.841675640708273,-0.7148172006502468
1001_w0000,1001,-0.1374697685241699,30.04966735839844,0,-0.841675640708273,-0.7148172006502468
1001_w0000,1001,-0.1473445892333984,30.04966735839844,0,-0.9128617196800203,-0.7148172006502468
1001_w0000,1001,-0.1473445892333984,30.04966735839844,0,-0.9128617196800203,-0.7148172006502468
1001_w0000,1001,-0.1473445892333984,30.444656372070312,0,-0.9128617196800203,-0.6755035353786478
1001_w0000,1001,-0.1374697685241699,30.04966735839844,0,-0.841675640708273,-0.7148172006502468
1001_w0000,1001,-0.1374697685241699,30.04966735839844,0,-0.841675640708273,-0.7148172006502468
1001_w0000,1001,-0.1473445892333984,30.04966735839844,0,-0.9128617196800203,-0.7148172006502468
1001_w0000,1001,-0.1374697685241699,30.444656372070312,0,-0.841675640708273,-0.6755035353786478
1001_w0000,1001,-0.1473445892333984,30.444656372070312,0,-0.9128617196800203,-0.6755035353786478
1001_w0000,1001,-0.1473445892333984,30.444656372070312,0,-0.9128617196800203,-0.6755035353786478
1001_w0000,1001,-0.1473445892333984,30.444656372070312,0,-0.9128617196800203,-0.6755035353786478
1001_w0000,1001,-0.1374697685241699,30.444656372070312,0,-0.841675640708273,-0.6755035353786478
1001_w0000,1001,-0.1374697685241699,30.444656372070312,0,-0.841675640708273,-0.6755035353786478
1001_w0000,1001,-0.1275954246520996,30.444656372070312,0,-0.7704929991829972,-0.6755035353786478
1001_w0000,1001,-0.1374697685241699,30.444656372070312,0,-0.841675640708273,-0.6755035353786478
1001_w0000,1001,-0.1473445892333984,30.444656372070312,0,-0.9128617196800203,-0.6755035353786478
1001_w0000,1001,-0.1374697685241699,30.839630126953125,0,-0.841675640708273,-0.636191388830114
1001_w0000,1001,-0.1275954246520996,30.839630126953125,0,-0.7704929991829972,-0.636191388830114
1001_w0000,1001,-0.1374697685241699,30.839630126953125,0,-0.841675640708273,-0.636191388830114
1001_w0000,1001,-0.1374697685241699,30.839630126953125,0,-0.841675640708273,-0.636191388830114
1001_w0000,1001,-0.1275954246520996,30.839630126953125,0,-0.7704929991829972,-0.636191388830114
1001_w0000,1001,-0.1177206039428711,30.444656372070312,0,-0.6993069202112501,-0.6755035353786478
1001_w0000,1001,-0.1275954246520996,30.839630126953125,0,-0.7704929991829972,-0.636191388830114
1001_w0000,1001,-0.1275954246520996,30.839630126953125,0,-0.7704929991829972,-0.636191388830114
1001_w0000,1001,-0.1177206039428711,30.839630126953125,0,-0.6993069202112501,-0.636191388830114
1001_w0000,1001,-0.1177206039428711,30.839630126953125,0,-0.6993069202112501,-0.636191388830114
1001_w0000,1001,-0.1078462600708007,30.839630126953125,0,-0.6281242786859734,-0.636191388830114
1001_w0000,1001,-0.0979714393615722,30.839630126953125,0,-0.5569381997142263,-0.636191388830114
1001_w0000,1001,-0.0979714393615722,30.839630126953125,0,-0.5569381997142263,-0.636191388830114
1001_w0000,1001,-0.0782227516174316,30.839630126953125,0,-0.4145729166636745,-0.636191388830114
1001_w0000,1001,-0.0584735870361328,30.839630126953125,0,-0.2722041961666515,-0.636191388830114
1001_w0000,1001,-0.0288496017456054,31.234619140625,0,-0.05864939669788069,-0.5968777235585145
1001_w0000,1001,-0.0189752578735351,31.234619140625,0,0.012533244827395226,-0.5968777235585145
1001_w0000,1001,-0.0288496017456054,31.629608154296875,0,-0.05864939669788069,-0.5575640582869152
1001_w0000,1001,-0.0189752578735351,31.629608154296875,0,0.012533244827395226,-0.5575640582869152
1001_w0000,1001,-0.0091004371643066,32.02458190917969,0,0.0837193237991423,-0.5182519117383813
1001_w0000,1001,0.0007739067077636,32.814544677734375,0,0.1549019653244175,-0.43962609991824797
1001_w0000,1001,0.0007739067077636,33.604522705078125,0,0.1549019653244175,-0.36099876937504927
1001_w0000,1001,-0.0091004371643066,34.39448547363281,0,0.0837193237991423,-0.282372957554916
1001_w0000,1001,-0.0189752578735351,35.579437255859375,0,0.012533244827395226,-0.16443348046318335
1001_w0000,1001,-0.0485987663269043,37.55433654785156,0,-0.2010181171949044,0.032130289725617135
1001_w0000,1001,-0.0782227516174316,39.13427734375,0,-0.4145729166636745,0.18938343208894912
1001_w0000,1001,-0.0880970954895019,40.714202880859375,0,-0.4857555581889504,0.3466350557292157
1001_w0000,1001,-0.0782227516174316,43.47908020019531,0,-0.4145729166636745,0.6218261564612149
1001_w0000,1001,-0.0683479309082031,45.84898376464844,0,-0.3433868376919274,0.8577051106446801
1001_w0000,1001,-0.0782227516174316,48.613861083984375,0,-0.4145729166636745,1.1328962113766794
1001_w0000,1001,-0.0782227516174316,50.588775634765625,0,-0.4145729166636745,1.3294615002885453
1001_w0000,1001,-0.0782227516174316,52.95867919921875,0,-0.4145729166636745,1.5653404544720106
1001_w0000,1001,-0.0683479309082031,55.72355651855469,0,-0.3433868376919274,1.8405315552040098
1001_w0000,1001,-0.0683479309082031,57.69847106933594,0,-0.3433868376919274,2.037096844115876
1001_w0000,1001,-0.0683479309082031,58.8834228515625,0,-0.3433868376919274,2.1550363212076085
1001_w0000,1001,-0.0683479309082031,60.068359375,0,-0.3433868376919274,2.2729742795762755
1001_w0000,1001,-0.0485987663269043,60.85833740234375,0,-0.2010181171949044,2.351601610119474
1001_w0000,1001,0.1192688941955566,61.253326416015625,0,1.0091142883065571,2.3909152753910736
1001_w0000,1001,0.395756721496582,60.85833740234375,0,3.002272937818411,2.351601610119474
1001_w0000,1001,0.6129975318908691,61.253326416015625,0,4.568328863285666,2.3909152753910736
1001_w0000,1001,0.4945025444030761,60.46334838867188,0,3.714116540303527,2.3122879448478755
1001_w0000,1001,0.1982655525207519,59.673370361328125,0,1.5785891702946497,2.233660614304676
1001_w0000,1001,0.0501470565795898,58.8834228515625,0,0.5108254852902113,2.1550363212076085
1001_w0000,1001,0.0205230712890625,58.09344482421875,0,0.2972706858214412,2.0764089906644094
1001_w0000,1001,0.0205230712890625,57.30348205566406,0,0.2972706858214412,1.9977831788442764
1001_w0000,1001,0.0106487274169921,56.1185302734375,0,0.22608804429616464,1.8798437017525438
1001_w0000,1001,-0.0091004371643066,55.32856750488281,0,0.0837193237991423,1.8012178899324105
1001_w0000,1001,-0.0189752578735351,54.14361572265625,0,0.012533244827395226,1.6832784128406777
1001_w0000,1001,-0.0189752578735351,52.95867919921875,0,0.012533244827395226,1.5653404544720106
1001_w0000,1001,-0.0189752578735351,51.37873840332031,0,0.012533244827395226,1.4080873121086785
1001_w0000,1001,-0.0288496017456054,49.79881286621094,0,-0.05864939669788069,1.250835688468412
1001_w0000,1001,-0.0189752578735351,48.613861083984375,0,0.012533244827395226,1.1328962113766794
1001_w0000,1001,-0.0091004371643066,47.033935546875,0,0.0837193237991423,0.9756445877364128
1001_w0000,1001,-0.0091004371643066,45.45399475097656,0,0.0837193237991423,0.8183914453730808
1001_w0000,1001,0.0007739067077636,44.26905822753906,0,0.1549019653244175,0.7004534870044136
1001_w0000,1001,0.0007739067077636,42.68911743164063,0,0.1549019653244175,0.5432003446410824
1001_w0000,1001,0.0007739067077636,41.50416564941406,0,0.1549019653244175,0.425260867549349
1001_w0000,1001,0.0106487274169921,40.714202880859375,0,0.22608804429616464,0.3466350557292157
1001_w0000,1001,0.0007739067077636,39.52925109863281,0,0.1549019653244175,0.22869557863748305
1001_w0000,1001,0.0106487274169921,38.34431457519531,0,0.22608804429616464,0.11075762026881585
1001_w0000,1001,0.0205230712890625,37.94932556152344,0,0.2972706858214412,0.0714439549972165
1001_w0000,1001,0.0205230712890625,37.55433654785156,0,0.2972706858214412,0.032130289725617135
1001_w0000,1001,0.030397891998291,36.76437377929688,0,0.36845676479318834,-0.046495522094515435
1001_w0000,1001,0.030397891998291,36.76437377929688,0,0.36845676479318834,-0.046495522094515435
1001_w0000,1001,0.0402722358703613,36.36940002441406,0,0.43963940631846427,-0.08580766864305008
1001_w0000,1001,0.0501470565795898,35.97441101074219,0,0.5108254852902113,-0.1251213339146494
1001_w0000,1001,0.0600214004516601,35.97441101074219,0,0.5820081268154873,-0.1251213339146494
1001_w0000,1001,0.0698962211608886,35.579437255859375,0,0.6531942057872343,-0.16443348046318335
1001_w0000,1001,0.0995197296142578,35.579437255859375,0,0.8667455678095339,-0.16443348046318335
1001_w0000,1001,0.1093940734863281,35.1844482421875,0,0.9379282093348099,-0.2037471457347827
1001_w0000,1001,0.1093940734863281,34.789459228515625,0,0.9379282093348099,-0.24306081100638205
1001_w0000,1001,0.1192688941955566,34.39448547363281,0,1.0091142883065571,-0.282372957554916
1001_w0000,1001,0.1291432380676269,33.99949645996094,0,1.080296929831833,-0.32168662282651533
1001_w0000,1001,0.1291432380676269,33.99949645996094,0,1.080296929831833,-0.32168662282651533
1001_w0000,1001,0.1291432380676269,33.604522705078125,0,1.080296929831833,-0.36099876937504927
1001_w0000,1001,0.1291432380676269,33.20953369140625,0,1.080296929831833,-0.4003124346466486
1001_w0000,1001,0.1291432380676269,32.814544677734375,0,1.080296929831833,-0.43962609991824797
1001_w0000,1001,0.1093940734863281,32.41957092285156,0,0.9379282093348099,-0.4789382464667819
1001_w0000,1001,0.0698962211608886,32.41957092285156,0,0.6531942057872343,-0.4789382464667819
1001_w0000,1001,0.0402722358703613,32.02458190917969,0,0.43963940631846427,-0.5182519117383813
1001_w0000,1001,0.0106487274169921,32.02458190917969,0,0.22608804429616464,-0.5182519117383813
1001_w0000,1001,0.0007739067077636,31.629608154296875,0,0.1549019653244175,-0.5575640582869152
1001_w0000,1001,-0.0288496017456054,31.629608154296875,0,-0.05864939669788069,-0.5575640582869152
1001_w0000,1001,-0.0387244224548339,31.629608154296875,0,-0.12983547566962778,-0.5575640582869152
1001_w0000,1001,-0.0584735870361328,31.234619140625,0,-0.2722041961666515,-0.5968777235585145
1001_w0000,1001,-0.0584735870361328,31.234619140625,0,-0.2722041961666515,-0.5968777235585145
1001_w0000,1001,-0.0584735870361328,31.234619140625,0,-0.2722041961666515,-0.5968777235585145
1001_w0000,1001,-0.0584735870361328,30.839630126953125,0,-0.2722041961666515,-0.636191388830114
1001_w0000,1001,-0.0584735870361328,30.839630126953125,0,-0.2722041961666515,-0.636191388830114
1001_w0000,1001,-0.0485987663269043,30.444656372070312,0,-0.2010181171949044,-0.6755035353786478
1001_w0000,1001,-0.0485987663269043,30.04966735839844,0,-0.2010181171949044,-0.7148172006502468
1001_w0000,1001,-0.0485987663269043,30.444656372070312,0,-0.2010181171949044,-0.6755035353786478
1001_w0000,1001,-0.0485987663269043,30.839630126953125,0,-0.2010181171949044,-0.636191388830114
1001_w0000,1001,-0.0584735870361328,30.444656372070312,0,-0.2722041961666515,-0.6755035353786478
1001_w0000,1001,-0.0584735870361328,30.444656372070312,0,-0.2722041961666515,-0.6755035353786478
1001_w0000,1001,-0.0584735870361328,30.444656372070312,0,-0.2722041961666515,-0.6755035353786478
1001_w0000,1001,-0.0584735870361328,30.04966735839844,0,-0.2722041961666515,-0.7148172006502468
1001_w0000,1001,-0.0584735870361328,30.04966735839844,0,-0.2722041961666515,-0.7148172006502468
1001_w0000,1001,-0.0584735870361328,30.04966735839844,0,-0.2722041961666515,-0.7148172006502468
1001_w0000,1001,-0.0584735870361328,30.04966735839844,0,-0.2722041961666515,-0.7148172006502468
1001_w0000,1001,-0.0584735870361328,30.04966735839844,0,-0.2722041961666515,-0.7148172006502468
1001_w0000,1001,-0.0584735870361328,30.04966735839844,0,-0.2722041961666515,-0.7148172006502468
1001_w0000,1001,-0.0584735870361328,30.04966735839844,0,-0.2722041961666515,-0.7148172006502468
1001_w0000,1001,-0.0584735870361328,30.04966735839844,0,-0.2722041961666515,-0.7148172006502468
1001_w0000,1001,-0.0584735870361328,30.04966735839844,0,-0.2722041961666515,-0.7148172006502468
1001_w0000,1001,-0.0485987663269043,30.04966735839844,0,-0.2010181171949044,-0.7148172006502468
1001_w0000,1001,-0.0584735870361328,30.04966735839844,0,-0.2722041961666515,-0.7148172006502468
1001_w0000,1001,-0.0683479309082031,30.04966735839844,0,-0.3433868376919274,-0.7148172006502468
1001_w0000,1001,-0.0683479309082031,30.04966735839844,0,-0.3433868376919274,-0.7148172006502468
1001_w0000,1001,-0.0584735870361328,30.04966735839844,0,-0.2722041961666515,-0.7148172006502468
1001_w0000,1001,-0.0782227516174316,30.444656372070312,0,-0.4145729166636745,-0.6755035353786478
1001_w0000,1001,-0.0782227516174316,30.444656372070312,0,-0.4145729166636745,-0.6755035353786478
1001_w0000,1001,-0.0782227516174316,30.444656372070312,0,-0.4145729166636745,-0.6755035353786478
1001_w0000,1001,-0.0782227516174316,30.444656372070312,0,-0.4145729166636745,-0.6755035353786478
1001_w0000,1001,-0.0683479309082031,30.444656372070312,0,-0.3433868376919274,-0.6755035353786478
1001_w0000,1001,-0.0683479309082031,30.444656372070312,0,-0.3433868376919274,-0.6755035353786478
1001_w0000,1001,-0.0584735870361328,30.444656372070312,0,-0.2722041961666515,-0.6755035353786478
1001_w0000,1001,-0.0683479309082031,30.444656372070312,0,-0.3433868376919274,-0.6755035353786478
1001_w0000,1001,-0.0782227516174316,30.444656372070312,0,-0.4145729166636745,-0.6755035353786478
1001_w0000,1001,-0.0683479309082031,30.444656372070312,0,-0.3433868376919274,-0.6755035353786478
1001_w0000,1001,-0.0683479309082031,30.839630126953125,0,-0.3433868376919274,-0.636191388830114
1001_w0000,1001,-0.0683479309082031,30.839630126953125,0,-0.3433868376919274,-0.636191388830114
1001_w0000,1001,-0.0683479309082031,30.839630126953125,0,-0.3433868376919274,-0.636191388830114
1001_w0000,1001,-0.0683479309082031,30.839630126953125,0,-0.3433868376919274,-0.636191388830114
1001_w0000,1001,-0.0683479309082031,30.839630126953125,0,-0.3433868376919274,-0.636191388830114
1001_w0000,1001,-0.0584735870361328,30.839630126953125,0,-0.2722041961666515,-0.636191388830114
1001_w0000,1001,-0.0387244224548339,30.839630126953125,0,-0.12983547566962778,-0.636191388830114
1001_w0000,1001,-0.0189752578735351,30.839630126953125,0,0.012533244827395226,-0.636191388830114
1001_w0000,1001,-0.0091004371643066,30.839630126953125,0,0.0837193237991423,-0.636191388830114
1001_w0000,1001,-0.0189752578735351,30.839630126953125,0,0.012533244827395226,-0.636191388830114
1001_w0000,1001,-0.0091004371643066,31.234619140625,0,0.0837193237991423,-0.5968777235585145
1001_w0000,1001,0.0106487274169921,31.629608154296875,0,0.22608804429616464,-0.5575640582869152
1001_w0000,1001,0.0106487274169921,32.02458190917969,0,0.22608804429616464,-0.5182519117383813
1001_w0000,1001,0.0106487274169921,32.814544677734375,0,0.22608804429616464,-0.43962609991824797
1001_w0000,1001,0.0007739067077636,33.604522705078125,0,0.1549019653244175,-0.36099876937504927
1001_w0000,1001,0.0007739067077636,34.789459228515625,0,0.1549019653244175,-0.24306081100638205
1001_w0000,1001,-0.0288496017456054,36.36940002441406,0,-0.05864939669788069,-0.08580766864305008
1001_w0000,1001,-0.0584735870361328,38.34431457519531,0,-0.2722041961666515,0.11075762026881585
1001_w0000,1001,-0.0880970954895019,40.31922912597656,0,-0.4857555581889504,0.3073229091806818
1001_w0000,1001,-0.0880970954895019,42.29414367675781,0,-0.4857555581889504,0.5038881980925477
1001_w0000,1001,-0.0880970954895019,44.66403198242188,0,-0.4857555581889504,0.7397656335529482
1001_w0000,1001,-0.0979714393615722,47.42890930175781,0,-0.5569381997142263,1.0149567342849468
1001_w0000,1001,-0.0979714393615722,50.19378662109375,0,-0.5569381997142263,1.290147835016946
1001_w0000,1001,-0.0979714393615722,52.56369018554688,0,-0.5569381997142263,1.526026789200412
1001_w0000,1001,-0.0979714393615722,54.14361572265625,0,-0.5569381997142263,1.6832784128406777
1001_w0000,1001,-0.0880970954895019,56.1185302734375,0,-0.4857555581889504,1.8798437017525438
1001_w0000,1001,-0.0880970954895019,58.09344482421875,0,-0.4857555581889504,2.0764089906644094
1001_w0000,1001,-0.0880970954895019,58.8834228515625,0,-0.4857555581889504,2.1550363212076085
1001_w0000,1001,-0.0979714393615722,59.673370361328125,0,-0.5569381997142263,2.233660614304676
1001_w0000,1001,-0.0288496017456054,60.46334838867188,0,-0.05864939669788069,2.3122879448478755
1001_w0000,1001,0.2180147171020507,60.46334838867188,0,1.7209578907916727,2.3122879448478755
1001_w0000,1001,0.514251708984375,60.46334838867188,0,3.85648526080055,2.3122879448478755
1001_w0000,1001,0.5537500381469727,60.068359375,0,4.141222701794597,2.2729742795762755
1001_w0000,1001,0.2871365547180176,59.673370361328125,0,2.2192466938080186,2.233660614304676
1001_w0000,1001,0.0600214004516601,58.8834228515625,0,0.5820081268154873,2.1550363212076085
1001_w0000,1001,-0.0189752578735351,58.09344482421875,0,0.012533244827395226,2.0764089906644094
1001_w0000,1001,-0.0387244224548339,57.30348205566406,0,-0.12983547566962778,1.9977831788442764
1001_w0000,1001,-0.0387244224548339,56.513519287109375,0,-0.12983547566962778,1.919157367024143
1001_w0000,1001,-0.0683479309082031,55.32856750488281,0,-0.3433868376919274,1.8012178899324105
1001_w0000,1001,-0.0782227516174316,54.14361572265625,0,-0.4145729166636745,1.6832784128406777
1001_w0000,1001,-0.0683479309082031,52.95867919921875,0,-0.3433868376919274,1.5653404544720106
1001_w0000,1001,-0.0683479309082031,51.77372741699219,0,-0.3433868376919274,1.4474009773802778
1001_w0000,1001,-0.0782227516174316,50.588775634765625,0,-0.4145729166636745,1.3294615002885453
1001_w0000,1001,-0.0880970954895019,49.00885009765625,0,-0.4857555581889504,1.1722098766482787
1001_w0000,1001,-0.0782227516174316,47.82389831542969,0,-0.4145729166636745,1.0542703995565461
1001_w0000,1001,-0.0683479309082031,46.24397277832031,0,-0.3433868376919274,0.8970187759162795
1001_w0000,1001,-0.0683479309082031,44.66403198242188,0,-0.3433868376919274,0.7397656335529482
1001_w0000,1001,-0.0683479309082031,43.0841064453125,0,-0.3433868376919274,0.582514009912681
1001_w0000,1001,-0.0584735870361328,41.89915466308594,0,-0.2722041961666515,0.46457453282094835
1001_w0000,1001,-0.0584735870361328,40.31922912597656,0,-0.2722041961666515,0.3073229091806818
1001_w0000,1001,-0.0584735870361328,39.52925109863281,0,-0.2722041961666515,0.22869557863748305
1001_w0000,1001,-0.0387244224548339,38.739288330078125,0,-0.12983547566962778,0.15006976681734976
1001_w0000,1001,-0.0387244224548339,37.94932556152344,0,-0.12983547566962778,0.0714439549972165
1001_w0000,1001,-0.0387244224548339,37.55433654785156,0,-0.12983547566962778,0.032130289725617135
1001_w0000,1001,-0.0288496017456054,37.15936279296875,0,-0.05864939669788069,-0.007181856822916791
1001_w0000,1001,-0.0288496017456054,36.76437377929688,0,-0.05864939669788069,-0.046495522094515435
1001_w0000,1001,-0.0189752578735351,36.36940002441406,0,0.012533244827395226,-0.08580766864305008
1001_w0000,1001,-0.0091004371643066,36.36940002441406,0,0.0837193237991423,-0.08580766864305008
1001_w0000,1001,0.0007739067077636,35.97441101074219,0,0.1549019653244175,-0.1251213339146494
1001_w0000,1001,0.0205230712890625,35.579437255859375,0,0.2972706858214412,-0.16443348046318335
1001_w0000,1001,0.030397891998291,35.1844482421875,0,0.36845676479318834,-0.2037471457347827
1001_w0000,1001,0.0402722358703613,34.789459228515625,0,0.43963940631846427,-0.24306081100638205
1001_w0000,1001,0.0600214004516601,34.39448547363281,0,0.5820081268154873,-0.282372957554916
1001_w0000,1001,0.0698962211608886,34.39448547363281,0,0.6531942057872343,-0.282372957554916
1001_w0000,1001,0.0797705650329589,33.604522705078125,0,0.7243768473125103,-0.36099876937504927
1001_w0000,1001,0.0896453857421875,33.604522705078125,0,0.7955629262842581,-0.36099876937504927
1001_w0000,1001,0.0995197296142578,33.20953369140625,0,0.8667455678095339,-0.4003124346466486
1001_w0000,1001,0.0995197296142578,33.20953369140625,0,0.8667455678095339,-0.4003124346466486
1001_w0000,1001,0.0797705650329589,32.41957092285156,0,0.7243768473125103,-0.4789382464667819
1001_w0000,1001,0.0600214004516601,32.02458190917969,0,0.5820081268154873,-0.5182519117383813
1001_w0000,1001,0.0402722358703613,31.629608154296875,0,0.43963940631846427,-0.5575640582869152
1001_w0000,1001,0.0106487274169921,31.629608154296875,0,0.22608804429616464,-0.5575640582869152
1001_w0000,1001,-0.0189752578735351,31.629608154296875,0,0.012533244827395226,-0.5575640582869152
1001_w0000,1001,-0.0485987663269043,31.234619140625,0,-0.2010181171949044,-0.5968777235585145
1001_w0000,1001,-0.0683479309082031,31.234619140625,0,-0.3433868376919274,-0.5968777235585145
1001_w0000,1001,-0.0880970954895019,31.234619140625,0,-0.4857555581889504,-0.5968777235585145
1001_w0000,1001,-0.0880970954895019,30.839630126953125,0,-0.4857555581889504,-0.636191388830114
1001_w0000,1001,-0.0979714393615722,30.839630126953125,0,-0.5569381997142263,-0.636191388830114
1001_w0000,1001,-0.0979714393615722,30.839630126953125,0,-0.5569381997142263,-0.636191388830114
1001_w0000,1001,-0.0880970954895019,30.839630126953125,0,-0.4857555581889504,-0.636191388830114
1001_w0000,1001,-0.0880970954895019,30.839630126953125,0,-0.4857555581889504,-0.636191388830114
1001_w0000,1001,-0.0880970954895019,30.839630126953125,0,-0.4857555581889504,-0.636191388830114
1001_w0000,1001,-0.0979714393615722,30.444656372070312,0,-0.5569381997142263,-0.6755035353786478
1001_w0000,1001,-0.0979714393615722,30.444656372070312,0,-0.5569381997142263,-0.6755035353786478
1001_w0000,1001,-0.0880970954895019,30.444656372070312,0,-0.4857555581889504,-0.6755035353786478
1001_w0000,1001,-0.0979714393615722,30.444656372070312,0,-0.5569381997142263,-0.6755035353786478
1001_w0000,1001,-0.0979714393615722,30.04966735839844,0,-0.5569381997142263,-0.7148172006502468
1001_w0000,1001,-0.0782227516174316,30.04966735839844,0,-0.4145729166636745,-0.7148172006502468
1001_w0000,1001,-0.0880970954895019,30.04966735839844,0,-0.4857555581889504,-0.7148172006502468
1001_w0000,1001,-0.0880970954895019,29.654693603515625,0,-0.4857555581889504,-0.7541293471987811
1001_w0000,1001,-0.0782227516174316,29.654693603515625,0,-0.4145729166636745,-0.7541293471987811
1001_w0000,1001,-0.0782227516174316,29.654693603515625,0,-0.4145729166636745,-0.7541293471987811
1001_w0000,1001,-0.0782227516174316,29.654693603515625,0,-0.4145729166636745,-0.7541293471987811
1001_w0000,1001,-0.0880970954895019,29.654693603515625,0,-0.4857555581889504,-0.7541293471987811
1001_w0000,1001,-0.0782227516174316,29.654693603515625,0,-0.4145729166636745,-0.7541293471987811
1001_w0000,1001,-0.0782227516174316,29.654693603515625,0,-0.4145729166636745,-0.7541293471987811
1001_w0000,1001,-0.0782227516174316,29.654693603515625,0,-0.4145729166636745,-0.7541293471987811
1001_w0000,1001,-0.0880970954895019,29.654693603515625,0,-0.4857555581889504,-0.7541293471987811
1001_w0000,1001,-0.0782227516174316,29.654693603515625,0,-0.4145729166636745,-0.7541293471987811
1001_w0000,1001,-0.0683479309082031,29.654693603515625,0,-0.3433868376919274,-0.7541293471987811
1001_w0000,1001,-0.0683479309082031,29.654693603515625,0,-0.3433868376919274,-0.7541293471987811
1001_w0000,1001,-0.0683479309082031,30.04966735839844,0,-0.3433868376919274,-0.7148172006502468
1001_w0000,1001,-0.0683479309082031,30.04966735839844,0,-0.3433868376919274,-0.7148172006502468
1001_w0000,1001,-0.0683479309082031,30.04966735839844,0,-0.3433868376919274,-0.7148172006502468
1001_w0000,1001,-0.0683479309082031,30.04966735839844,0,-0.3433868376919274,-0.7148172006502468
1001_w0000,1001,-0.0584735870361328,30.04966735839844,0,-0.2722041961666515,-0.7148172006502468
1001_w0000,1001,-0.0584735870361328,30.04966735839844,0,-0.2722041961666515,-0.7148172006502468
1001_w0000,1001,-0.0584735870361328,30.444656372070312,0,-0.2722041961666515,-0.6755035353786478
1001_w0000,1001,-0.0584735870361328,30.444656372070312,0,-0.2722041961666515,-0.6755035353786478
1001_w0000,1001,-0.0485987663269043,30.444656372070312,0,-0.2010181171949044,-0.6755035353786478
1001_w0000,1001,-0.0485987663269043,30.444656372070312,0,-0.2010181171949044,-0.6755035353786478
1001_w0000,1001,-0.0387244224548339,30.444656372070312,0,-0.12983547566962778,-0.6755035353786478
1001_w0000,1001,-0.0387244224548339,30.444656372070312,0,-0.12983547566962778,-0.6755035353786478
1001_w0000,1001,-0.0485987663269043,30.444656372070312,0,-0.2010181171949044,-0.6755035353786478
1001_w0000,1001,-0.0584735870361328,30.444656372070312,0,-0.2722041961666515,-0.6755035353786478
1001_w0000,1001,-0.0584735870361328,30.444656372070312,0,-0.2722041961666515,-0.6755035353786478
1001_w0000,1001,-0.0485987663269043,30.444656372070312,0,-0.2010181171949044,-0.6755035353786478
1001_w0000,1001,-0.0091004371643066,30.444656372070312,0,0.0837193237991423,-0.6755035353786478
1001_w0000,1001,0.0007739067077636,30.444656372070312,0,0.1549019653244175,-0.6755035353786478
1001_w0000,1001,0.0007739067077636,30.444656372070312,0,0.1549019653244175,-0.6755035353786478
1001_w0000,1001,0.0007739067077636,30.839630126953125,0,0.1549019653244175,-0.636191388830114
1001_w0000,1001,0.0205230712890625,31.234619140625,0,0.2972706858214412,-0.5968777235585145
1001_w0000,1001,0.030397891998291,31.629608154296875,0,0.36845676479318834,-0.5575640582869152
1001_w0000,1001,0.0205230712890625,32.41957092285156,0,0.2972706858214412,-0.4789382464667819
1001_w0000,1001,0.0106487274169921,33.604522705078125,0,0.22608804429616464,-0.36099876937504927
1001_w0000,1001,0.0007739067077636,34.39448547363281,0,0.1549019653244175,-0.282372957554916
1001_w0000,1001,-0.0189752578735351,35.97441101074219,0,0.012533244827395226,-0.1251213339146494
1001_w0000,1001,-0.0683479309082031,38.34431457519531,0,-0.3433868376919274,0.11075762026881585
1001_w0000,1001,-0.0979714393615722,40.31922912597656,0,-0.5569381997142263,0.3073229091806818
1001_w0000,1001,-0.1078462600708007,42.68911743164063,0,-0.6281242786859734,0.5432003446410824
1001_w0000,1001,-0.0979714393615722,45.05902099609375,0,-0.5569381997142263,0.7790792988245469
1001_w0000,1001,-0.0979714393615722,48.2188720703125,0,-0.5569381997142263,1.09358254610508
1001_w0000,1001,-0.1078462600708007,50.9837646484375,0,-0.6281242786859734,1.3687751655601446
1001_w0000,1001,-0.1078462600708007,53.35365295410156,0,-0.6281242786859734,1.6046526010205444
1001_w0000,1001,-0.1078462600708007,55.32856750488281,0,-0.6281242786859734,1.8012178899324105
1001_w0000,1001,-0.1177206039428711,57.30348205566406,0,-0.6993069202112501,1.9977831788442764
1001_w0000,1001,-0.1078462600708007,59.278411865234375,0,-0.6281242786859734,2.1943499864792075
1001_w0000,1001,-0.1078462600708007,60.068359375,0,-0.6281242786859734,2.2729742795762755
1001_w0000,1001,-0.1078462600708007,60.85833740234375,0,-0.6281242786859734,2.351601610119474
1001_w0000,1001,-0.0782227516174316,61.253326416015625,0,-0.4145729166636745,2.3909152753910736
1001_w0000,1001,0.1093940734863281,61.253326416015625,0,0.9379282093348099,2.3909152753910736
1001_w0000,1001,0.4155058860778808,60.85833740234375,0,3.144641658315434,2.351601610119474
1001_w0000,1001,0.6129975318908691,60.85833740234375,0,4.568328863285666,2.351601610119474
1001_w0000,1001,0.4550042152404785,60.068359375,0,3.4293790993094806,2.2729742795762755
1001_w0000,1001,0.1686415672302246,59.278411865234375,0,1.3650343708258796,2.1943499864792075
1001_w0000,1001,0.0106487274169921,58.48843383789063,0,0.22608804429616464,2.11572265593601
1001_w0000,1001,-0.0288496017456054,57.69847106933594,0,-0.05864939669788069,2.037096844115876
1001_w0000,1001,-0.0485987663269043,56.90850830078125,0,-0.2010181171949044,1.9584710322957424
1001_w0000,1001,-0.0584735870361328,55.72355651855469,0,-0.2722041961666515,1.8405315552040098
1001_w0000,1001,-0.0683479309082031,54.538604736328125,0,-0.3433868376919274,1.7225920781122772
1001_w0000,1001,-0.0782227516174316,53.35365295410156,0,-0.4145729166636745,1.6046526010205444
1001_w0000,1001,-0.0683479309082031,51.77372741699219,0,-0.3433868376919274,1.4474009773802778
1001_w0000,1001,-0.0782227516174316,50.588775634765625,0,-0.4145729166636745,1.3294615002885453
1001_w0000,1001,-0.0782227516174316,49.40382385253906,0,-0.4145729166636745,1.2115220231968127
1001_w0000,1001,-0.0782227516174316,47.42890930175781,0,-0.4145729166636745,1.0149567342849468
1001_w0000,1001,-0.0683479309082031,45.84898376464844,0,-0.3433868376919274,0.8577051106446801
1001_w0000,1001,-0.0683479309082031,44.66403198242188,0,-0.3433868376919274,0.7397656335529482
1001_w0000,1001,-0.0584735870361328,43.0841064453125,0,-0.2722041961666515,0.582514009912681
1001_w0000,1001,-0.0485987663269043,41.50416564941406,0,-0.2010181171949044,0.425260867549349
1001_w0000,1001,-0.0485987663269043,39.92424011230469,0,-0.2010181171949044,0.26800924390908243
1001_w0000,1001,-0.0485987663269043,39.13427734375,0,-0.2010181171949044,0.18938343208894912
1001_w0000,1001,-0.0485987663269043,38.34431457519531,0,-0.2010181171949044,0.11075762026881585
1001_w0000,1001,-0.0485987663269043,37.55433654785156,0,-0.2010181171949044,0.032130289725617135
1001_w0000,1001,-0.0387244224548339,37.15936279296875,0,-0.12983547566962778,-0.007181856822916791
1001_w0000,1001,-0.0189752578735351,36.36940002441406,0,0.012533244827395226,-0.08580766864305008
1001_w0000,1001,-0.0288496017456054,36.36940002441406,0,-0.05864939669788069,-0.08580766864305008
1001_w0000,1001,-0.0189752578735351,35.97441101074219,0,0.012533244827395226,-0.1251213339146494
1001_w0000,1001,-0.0091004371643066,35.97441101074219,0,0.0837193237991423,-0.1251213339146494
1001_w0000,1001,0.0007739067077636,35.579437255859375,0,0.1549019653244175,-0.16443348046318335
1001_w0000,1001,0.0106487274169921,35.1844482421875,0,0.22608804429616464,-0.2037471457347827
1001_w0000,1001,0.030397891998291,34.789459228515625,0,0.36845676479318834,-0.24306081100638205
1001_w0000,1001,0.0402722358703613,34.39448547363281,0,0.43963940631846427,-0.282372957554916
1001_w0000,1001,0.0600214004516601,34.39448547363281,0,0.5820081268154873,-0.282372957554916
1001_w0000,1001,0.0600214004516601,33.99949645996094,0,0.5820081268154873,-0.32168662282651533
1001_w0000,1001,0.0797705650329589,33.20953369140625,0,0.7243768473125103,-0.4003124346466486
1001_w0000,1001,0.0797705650329589,32.814544677734375,0,0.7243768473125103,-0.43962609991824797
1001_w0000,1001,0.0995197296142578,32.41957092285156,0,0.8667455678095339,-0.4789382464667819
1001_w0000,1001,0.0995197296142578,32.02458190917969,0,0.8667455678095339,-0.5182519117383813
1001_w0000,1001,0.0995197296142578,31.629608154296875,0,0.8667455678095339,-0.5575640582869152
1001_w0000,1001,0.0698962211608886,31.629608154296875,0,0.6531942057872343,-0.5575640582869152
1001_w0000,1001,0.0501470565795898,31.234619140625,0,0.5108254852902113,-0.5968777235585145
1001_w0000,1001,0.030397891998291,30.839630126953125,0,0.36845676479318834,-0.636191388830114
1001_w0000,1001,0.0007739067077636,30.839630126953125,0,0.1549019653244175,-0.636191388830114
1001_w0000,1001,-0.0189752578735351,30.444656372070312,0,0.012533244827395226,-0.6755035353786478
1001_w0000,1001,-0.0387244224548339,30.444656372070312,0,-0.12983547566962778,-0.6755035353786478
1001_w0000,1001,-0.0485987663269043,30.444656372070312,0,-0.2010181171949044,-0.6755035353786478
1001_w0000,1001,-0.0485987663269043,30.04966735839844,0,-0.2010181171949044,-0.7148172006502468
1001_w0000,1001,-0.0584735870361328,30.04966735839844,0,-0.2722041961666515,-0.7148172006502468
1001_w0000,1001,-0.0584735870361328,30.04966735839844,0,-0.2722041961666515,-0.7148172006502468
1001_w0000,1001,-0.0584735870361328,29.654693603515625,0,-0.2722041961666515,-0.7541293471987811
1001_w0000,1001,-0.0485987663269043,29.654693603515625,0,-0.2010181171949044,-0.7541293471987811
1001_w0000,1001,-0.0485987663269043,29.654693603515625,0,-0.2010181171949044,-0.7541293471987811
1001_w0000,1001,-0.0485987663269043,29.654693603515625,0,-0.2010181171949044,-0.7541293471987811
1001_w0000,1001,-0.0485987663269043,29.654693603515625,0,-0.2010181171949044,-0.7541293471987811
1001_w0000,1001,-0.0485987663269043,29.654693603515625,0,-0.2010181171949044,-0.7541293471987811
1001_w0000,1001,-0.0584735870361328,29.25970458984375,0,-0.2722041961666515,-0.7934430124703805
1001_w0000,1001,-0.0584735870361328,29.25970458984375,0,-0.2722041961666515,-0.7934430124703805
1001_w0000,1001,-0.0584735870361328,29.25970458984375,0,-0.2722041961666515,-0.7934430124703805
1001_w0000,1001,-0.0485987663269043,29.25970458984375,0,-0.2010181171949044,-0.7934430124703805
1001_w0000,1001,-0.0485987663269043,28.864715576171875,0,-0.2010181171949044,-0.8327566777419798
1001_w0000,1001,-0.0485987663269043,28.864715576171875,0,-0.2010181171949044,-0.8327566777419798
1001_w0000,1001,-0.0485987663269043,28.864715576171875,0,-0.2010181171949044,-0.8327566777419798
1001_w0000,1001,-0.0584735870361328,28.864715576171875,0,-0.2722041961666515,-0.8327566777419798
1001_w0000,1001,-0.0485987663269043,28.864715576171875,0,-0.2010181171949044,-0.8327566777419798
1001_w0000,1001,-0.0485987663269043,29.25970458984375,0,-0.2010181171949044,-0.7934430124703805
1001_w0000,1001,-0.0485987663269043,28.864715576171875,0,-0.2010181171949044,-0.8327566777419798
