ECG,PPG,ECG_Filtered,PPG_Filtered,ECG_Normalized,PPG_Normalized
0.7254772105499813,0.4359707736779858,-0.0337335931529741,-0.0310648655094296,-0.13790673893037134,-0.4727264481818509
0.6705965828174644,0.4320642255267494,-0.0836671293689282,-0.0346455037460318,-0.35207343856912765,-0.5272811254266001
0.60980855901558,0.4281504430270847,-0.1397934045308396,-0.0381740044912009,-0.5928010141699656,-0.5810414347878786
0.5509794644802216,0.4242438948758483,-0.1931323768674324,-0.0415801559989135,-0.8215737495525868,-0.6329376286704279
0.4999860870109672,0.4213067494139927,-0.2388607589283038,-0.0448042249721729,-1.0177043945652235,-0.6820596093421987
0.4549001056110801,0.4183768383005654,-0.2817527893323023,-0.0477989482501767,-1.2016698271895316,-0.7276872743206826
0.4098141242111931,0.4174002012627563,-0.3169102030893357,-0.0505286133874237,-1.352461215959076,-0.7692765080574216
0.3901942232761438,0.4164235642249472,-0.3364157999120924,-0.0529658298352573,-1.4361214093398784,-0.8064099875941113
0.374522789143936,0.4154469271871381,-0.345743931090666,-0.0550873613618808,-1.4761300932767107,-0.8387336852289035
0.3588207467419387,0.414470290149329,-0.3533110309051239,-0.056870851368809,-1.508585651522988,-0.8659069753710354
0.3549028882088867,0.4125097817252826,-0.3584263620663603,-0.0582942197369271,-1.530525487460569,-0.8875934448750741
0.3490261004093087,0.4115331446874735,-0.3547132393152496,-0.0593388801179224,-1.5145997728963183,-0.9035099117588262
0.3549028882088867,0.4095798706118552,-0.3432649838736892,-0.0599968434706676,-1.4654978011485804,-0.9135346548286398
0.3646975345415166,0.407626596536237,-0.335496187403923,-0.0602805003436581,-1.432177158827169,-0.917856456734251
0.3549028882088867,0.4066499594984279,-0.3314173926120566,-0.0602327301138436,-1.4146830639707613,-0.9171286285379262
0.3646975345415166,0.4066499594984279,-0.3216454708335201,-0.0599342765564874,-1.3727709464835045,-0.9125813840473559
0.374522789143936,0.4066499594984279,-0.3102577879766435,-0.0595052860097436,-1.3239287726898756,-0.9060452753225424
0.3705743223410945,0.407626596536237,-0.2999072843289773,-0.0590986074634465,-1.279535097140189,-0.899849112691867
0.3901942232761438,0.4086032335740461,-0.2855806494874391,-0.0588837996651737,-1.2180876545302362,-0.8965762966936923
0.3901942232761438,0.4086032335740461,-0.2750110648314176,-0.0590225366199589,-1.1727543328014756,-0.8986900957680741
0.3901942232761438,0.4105565076496644,-0.2716135963716303,-0.0596379496156055,-1.1581824706362853,-0.908066540728787
0.3941120818091958,0.4115331446874735,-0.2631136019557186,-0.0607820886015533,-1.1217256945103031,-0.925498665667705
0.4039067281418257,0.4115331446874735,-0.2497687566968595,-0.0624068341229391,-1.0644891820806746,-0.9502533215885348
0.4039067281418257,0.4105565076496644,-0.2429356390208954,-0.0643439569880442,-1.0351816991382408,-0.9797673650931127
0.3999888696087737,0.4086032335740461,-0.2434076048988138,-0.0662993889312066,-1.0372059774504905,-1.0095603660846142
0.3941120818091958,0.4066499594984279,-0.2461346304982337,-0.0678651018796707,-1.0489022865188546,-1.0334156005197017
0.3843174354765659,0.4046894510743815,-0.2477245444528361,-0.068549510221815,-1.0557214835990327,-1.0438432599876764
0.3843174354765659,0.4046894510743815,-0.2471389847218772,-0.0678244119083116,-1.0532099972408775,-1.0327956472856938
0.3803995769435139,0.4056660881121906,-0.2438370893902784,-0.0651836443076319,-1.0390480515965153,-0.9925608582302708
0.3901942232761438,0.4086032335740461,-0.2314815167472478,-0.0602062942167303,-0.9860545643405635,-0.9167258506700174
0.4039067281418257,0.4125097817252826,-0.2103924772948286,-0.0526158318947745,-0.8956029296207083,-0.801077411830332
0.419608770543823,0.4203301123761837,-0.1949505155134669,-0.0423262271755829,-0.8293718103913558,-0.6443047843436112
0.419608770543823,0.4320642255267494,-0.1864641548582244,-0.0294671947046364,-0.7929735099461978,-0.4483843031955533
0.4254855583434009,0.4525880720175971,-0.1763432448447079,-0.0143833422967992,-0.7495645695987461,-0.21856642008601382
0.4254855583434009,0.4740957898946821,-0.1765738788097738,0.0023940002322621,-0.7505537668170071,0.0370535130703972
0.3999888696087737,0.4956035077717671,-0.1924897913883998,0.0201987769789756,-0.8188176777477577,0.30832745493432184
0.3901942232761438,0.5180806283382331,-0.1994130172746371,0.0382982111490401,-0.8485116379851523,0.584090803313644
0.4039067281418257,0.5347051610262725,-0.1847342948454425,0.0559662276506938,-0.7855540792819583,0.8532810632929028
0.419608770543823,0.5503385879796465,-0.1616567194162882,0.0725511508766813,-0.6865735435564055,1.1059692920208843
0.4294034168764529,0.5640259752058304,-0.1456818890862169,0.0875281927448707,-0.6180569323097269,1.3341598075686136
0.4352802046760309,0.5757600883563961,-0.1428993891970097,0.1005305013645228,-0.6061226920540506,1.5322632470422581
0.4294034168764529,0.5845570560451063,-0.1404615338670403,0.1113565123138234,-0.5956666444799659,1.6972085707976305
0.4156909120107711,0.5923773866960075,-0.1422655035598885,0.1199552201676951,-0.603403934178311,1.8282186591373581
0.4098141242111931,0.5962839348472438,-0.1618940830578276,0.1263942007097677,-0.6875916045946399,1.9263230980798773
0.4156909120107711,0.5992210803090994,-0.1458664025080494,0.1308174213296914,-0.6188483168898619,1.9937153777119139
0.419608770543823,0.6011743543847177,-0.1086699337312931,0.1334008784471684,-0.45931134915576677,2.0330769830756967
0.4039067281418257,0.6021509914225267,-0.178246714597042,0.1343138072062327,-0.7577286185648865,2.046986384279395
0.3490261004093087,0.6031276284603359,-0.1999785209150459,0.1336916751891741,-0.8509371030628962,2.0375075681713306
0.654894540415467,0.6031276284603359,0.1824720869749101,0.1316246551895503,0.7894070558684665,2.0060144092743495
1.503906727835743,0.6011743543847177,0.8271643007156144,0.1281622328108773,3.5545147202348346,1.9532608712535
1.503906727835743,0.598237208922862,1.1370157700700383,0.123331614660433,4.883478611012787,1.8796614745324867
1.503906727835743,0.5933540237338165,0.8220627634834561,0.117165197034616,3.532634046946038,1.7857098097443653
0.6607713282150449,0.5855336930829155,0.2235087227201518,0.109730902483107,0.9654146353001869,1.6724407462422015
0.4294034168764529,0.5777133624320144,-0.1190833498482867,0.1011588382961377,-0.5039748585074033,1.5418366013551292
0.419608770543823,0.5718463058567315,-0.1209590484024762,0.0916584160184068,-0.5120197958242922,1.397087973651745
0.4039067281418257,0.5620727011302122,-0.0901350645917703,0.0815216203256342,-0.3798146410780493,1.2426435476099942
0.3843174354765659,0.5474086768662192,-0.138630751755288,0.0711103746193425,-0.5878143553703796,1.0840175955614275
0.3490261004093087,0.5337212896400352,-0.1678371028810928,0.0608287816768119,-0.7130814264236364,0.9273670356674139
0.3392008458068894,0.5210177738000886,-0.163301164220159,0.0510840729322622,-0.6936266253742036,0.7788964543703021
0.3549028882088867,0.5092836606495229,-0.148928246679727,0.0422426788966917,-0.6319806746347725,0.644188794413593
0.3803995769435139,0.5024472013848591,-0.1277883959382508,0.0345891361800866,-0.5413111085023558,0.5275792613937177
0.3803995769435139,0.4975567818473854,-0.1143392680179426,0.0282951149506082,-0.48362732405627107,0.43168342549614075
0.3901942232761438,0.4956035077717671,-0.1041507642567685,0.0234037848379874,-0.4399284717388473,0.35715902008042644
0.4039067281418257,0.494626870733958,-0.09399463236089,0.0198316191674036,-0.3963684634945034,0.3027334310244375
0.3941120818091958,0.4936429993477207,-0.0925790344166568,0.0173863979672957,-0.3902969139366941,0.26547799091873964
0.4039067281418257,0.4936429993477207,-0.082387076736765,0.0157974049362717,-0.346583247639956,0.24126806067068124
0.4294034168764529,0.4936429993477207,-0.057903123203347,0.0147521504241439,-0.24157070657571192,0.22534254159286968
0.4352802046760309,0.4916897252721025,-0.0445409513514736,0.0139335717680319,-0.18425987977696276,0.2128706604832026
0.4392286714788723,0.4887598141586752,-0.038739580503026,0.0130524522495099,-0.15937759540160662,0.199445905517554
0.4607768934106581,0.4868065400830569,-0.0175837347923984,0.0118714368778187,-0.06863942628182765,0.18145193121289463
0.4843146528787593,0.4838693946212014,0.0128268123598238,0.0102190347165818,0.06179248404058376,0.15627589816289056
0.5156881294129645,0.4809394835077741,0.0430421827881404,0.007993878856872,0.19138727450382104,0.12237337807448181
0.5509794644802216,0.4780023380459186,0.0840506971190878,0.0051608965177203,0.36727424019686017,0.07921000134107681
0.605890700482528,0.4750724269324912,0.138453622556178,0.001741776560318,0.6006103079883555,0.027116219894401706
0.654894540415467,0.4711658787812548,0.1920074442339365,-0.0021977488464728,0.8303045397800838,-0.03290646959933128
0.6960932715520916,0.4682287333193992,0.2348824526191843,-0.0065616124870469,1.0141969643650401,-0.09939438508266953
0.7254772105499813,0.4633455481303537,0.2657614355286378,-0.011236476993418,1.1466380121874498,-0.17062071610404128
0.7411792529519786,0.4584551285928799,0.2853958724199988,-0.0161031229881766,1.2308508051709497,-0.24476903379626597
0.7509738992846084,0.4535647090554062,0.295099951206389,-0.0210456187504433,1.272471941669823,-0.3200730000941482
0.7411792529519786,0.4486815238663607,0.2904508783381085,-0.0259580626315885,1.252531904011092,-0.3949190953179795
0.7156825642173513,0.4437911043288869,0.2634500507468189,-0.0307488971254552,1.1367244012591848,-0.4679123474354918
0.6647197950178864,0.4389079191398414,0.2172091724544813,-0.0353429348041873,0.9383956418170849,-0.5379071992614822
0.605890700482528,0.4349941366401767,0.1607838510926026,-0.039681348695167,0.6963854465073299,-0.6040073618406344
0.5451026766806437,0.4310875884889403,0.0973607897380245,-0.0437199774689671,0.4243616973269856,-0.6655399922565731
0.4745200065461294,0.4261971689514665,0.0355610756934099,-0.0474263791417455,0.15930054206826402,-0.7220108037814204
0.4294034168764529,0.4232672578380392,-0.0135399219167596,-0.0507761271678079,-0.05129537009909005,-0.7730476330664929
0.3843174354765659,0.4203301123761837,-0.0544485141770324,-0.0537488853301676,-0.22675376650344714,-0.8183406370947703
0.3451082418762568,0.4183768383005654,-0.0916580904468651,-0.0563248512394069,-0.3863469527380821,-0.8575881062569669
0.3196115531416296,0.4164235642249472,-0.1161379170711089,-0.0584822289780101,-0.4913417933431854,-0.8904579575090135
0.3098169068089997,0.414470290149329,-0.1245528641257398,-0.0601964236672677,-0.527433798334199,-0.916575462776972
0.3098169068089997,0.414470290149329,-0.1229097228358423,-0.0614415611676995,-0.5203863073338504,-0.9355464031436955
0.3098169068089997,0.4134864187630917,-0.1198441079491556,-0.0621946764034869,-0.507237776859148,-0.9470208822453523
0.3039095107396323,0.4125097817252826,-0.1267044049732639,-0.0624424818943464,-0.5366618329852876,-0.9507964517611783
0.2941148644070023,0.4125097817252826,-0.135269517897439,-0.0621900524571603,-0.5733979046920965,-0.946950431704757
0.2999916522065803,0.4125097817252826,-0.1226813534903095,-0.0614701186835859,-0.5194068231487148,-0.9359815060385283
0.3294061994742595,0.4125097817252826,-0.1001871635188148,-0.0603510907376231,-0.42292844824637804,-0.9189319734172752
0.3294061994742595,0.4125097817252826,-0.0943061916535254,-0.0589416003252833,-0.39770475229962493,-0.8974569487306892
0.3235294116746816,0.4134864187630917,-0.0951258409503555,-0.0573893915331664,-0.4012202570698888,-0.8738074638972937
0.3392008458068894,0.4154469271871381,-0.0891114481914195,-0.0558729071372032,-0.3754243142001145,-0.8507022766927417
0.3294061994742595,0.4174002012627563,-0.0863687363721935,-0.0545849306812883,-0.36366072638122965,-0.8310786411260416
0.3352829872738374,0.4193534753383746,-0.0859394749613209,-0.0537090472453053,-0.3618196090357394,-0.8177336632208125
0.3392008458068894,0.4203301123761837,-0.0802441622813144,-0.0533912182198734,-0.33739221188900903,-0.812891213703236
0.3392008458068894,0.4213067494139927,-0.077046334197123,-0.0537100974526875,-0.32367661434267353,-0.8177496642019199
0.3392008458068894,0.4213067494139927,-0.0782902303417934,-0.0546505605447904,-0.3290117288205525,-0.8320785790657012
0.3392008458068894,0.4203301123761837,-0.0768560100590972,-0.0560850931956247,-0.3228603073956491,-0.8539351478090389
0.3352829872738374,0.4193534753383746,-0.0782644983595465,-0.0577671124919801,-0.3289013634402769,-0.87956242813412
0.3294061994742595,0.4164235642249472,-0.0873705504097187,-0.0593390010307063,-0.3679575421553145,-0.9035117539884693
0.3196115531416296,0.414470290149329,-0.091234310980729,-0.0603557524857837,-0.3845293476470963,-0.9190029999073848
0.3294061994742595,0.4134864187630917,-0.0843444428636715,-0.0603229141311801,-0.35497846005934647,-0.9185026740664956
0.3352829872738374,0.4134864187630917,-0.077973143956288,-0.0587453176345533,-0.32765173411898807,-0.8944663816490876
0.3392008458068894,0.4164235642249472,-0.0705688869258489,-0.0551812810300695,-0.2958946143222222,-0.8401646472100922
0.3549028882088867,0.4213067494139927,-0.0557850235748747,-0.0492958294254171,-0.23248610249371518,-0.7504937864542492
0.3646975345415166,0.4281504430270847,-0.0487809939277811,-0.0409061778571079,-0.20244557207338476,-0.6226688839476682
0.3451082418762568,0.4369474107157949,-0.0601421161836157,-0.0300132894511007,-0.2511738265114733,-0.4567046138971124
0.3352829872738374,0.4506347979419788,-0.078096277420581,-0.0168147423954597,-0.3281798578943335,-0.255611281608005
0.3137347653420516,0.4682287333193992,-0.0930354247345522,-0.0016963475619804,-0.39225438812213964,-0.025267109396457894
0.3098169068089997,0.4868065400830569,-0.1000328272429441,0.0147972163346175,-0.4222664945106199,0.22602916672452808
0.3137347653420516,0.5053771124982864,-0.0929892450741496,0.0320094387476918,-0.3920563219283878,0.4882749386685728
0.3294061994742595,0.523947684913516,-0.0819244203015934,0.0492307061080864,-0.3445988978562995,0.7506585196145744
0.3196115531416296,0.5415416202909363,-0.0817125309999441,0.0657610183119953,-0.3436900971611768,1.002514693695692
0.3352829872738374,0.5581589186305476,-0.0828945984450981,0.0809685049457284,-0.3487600261640853,1.2342162703940467
0.3098169068089997,0.5718463058567315,-0.0844830378014408,0.0943363388964608,-0.35557289864026964,1.4378888612714893
0.3098169068089997,0.5816199105832508,-0.1055319375594393,0.1054925585305039,-0.445852372793699,1.6078652512863325
0.3039095107396323,0.5874869671585337,-0.1093693352151434,0.1142201059067508,-0.4623111068110399,1.7408383412182613
0.3098169068089997,0.590416878271961,-0.0767267522283909,0.1204476743915771,-0.3223059159965479,1.8357217017421843
0.3137347653420516,0.590416878271961,-0.1099016816062915,0.1242251548291925,-0.464594359276151,1.8932754707786281
0.2647003171393232,0.5914007496581983,-0.155973324848144,0.1256898919751833,-0.6621972636121989,1.9155922358265682
0.4549001056110801,0.590416878271961,0.1043437742757427,0.1250310347207167,0.45431196453024736,1.905553873251885
1.2078329341622147,0.5894402412341518,0.7148723423451291,0.1224587418722892,3.072890546529797,1.8663623669191753
1.503906727835743,0.5865103301207246,1.1829268498184906,0.1181830923992581,5.080392852857253,1.801218484292753
1.503906727835743,0.5826037819694881,1.039696837271985,0.1124048052090852,4.4660742725821025,1.7131803827428775
0.8255050362219641,0.5777133624320144,0.4305668218049058,0.1053169896389249,1.853494132067088,1.6051902800713125
0.3352829872738374,0.5708696688189224,-0.0497100429055721,0.0971147362599809,-0.2064302959374376,1.4802205802022284
0.3137347653420516,0.5630493381680214,-0.1226886655004432,0.0880078515467591,-0.5194381846183148,1.3414678988628228
0.3352829872738374,0.5522990964036929,-0.0619646415357874,0.0782316691439231,-0.25899070208772906,1.1925177842657622
0.3137347653420516,0.5405649832531272,-0.0860329485027042,0.0680516445682297,-0.3622205203546379,1.0374147220816365
0.3098169068089997,0.5288381044509897,-0.1122548968664603,0.0577591299945109,-0.4746873826028042,0.8805977599919563
0.3039095107396323,0.517103991300424,-0.0983273058779549,0.0476578928408974,-0.4149514531659931,0.7266951045784946
0.3098169068089997,0.5073303865739046,-0.0972449871981936,0.0380430617714504,-0.41030935013929437,0.5802033421897262
0.3137347653420516,0.4975567818473854,-0.1026394466878591,0.0291758222348033,-0.4334463773316024,0.445101899651172
0.3098169068089997,0.487783177120866,-0.0927866596618084,0.0212581130698142,-0.3911874259429637,0.32446752123274103
0.3352829872738374,0.479962846469965,-0.080764564806007,0.0144117559875285,-0.339624236689237,0.22015628500999768
0.3352829872738374,0.4740957898946821,-0.0725836020880009,0.0086659166563675,-0.30453579877837916,0.13261255970220726
0.3490261004093087,0.4701892417434457,-0.062085646785947,0.0039555906134165,-0.2595096978775238,0.06084593598582277
0.3646975345415166,0.4682287333193992,-0.0496601786850956,0.0001320304955931,-0.2062164265354524,0.002590096001358837
0.374522789143936,0.4672520962815901,-0.0342469950546818,-0.0030160561554828,-0.1401087378114734,-0.04537421645901479
0.4039067281418257,0.466275459243781,-0.0115736616404153,-0.0057336835697176,-0.04286201035876986,-0.08678004320228017
0.4254855583434009,0.4643221851681628,0.0133070263285424,-0.0082676744316137,0.06385213870545871,-0.12538797968655
0.4490233178115022,0.4604084026684982,0.0355954386180888,-0.0108366416467953,0.15944792586532952,-0.16452881660325763
0.4803967943457073,0.4565018545172618,0.0639469575501472,-0.0136072550813261,0.2810485914613831,-0.20674193943306512
0.5156881294129645,0.4525880720175971,0.1042742109617985,-0.0166797480247516,0.4540136050209401,-0.25355450462099866
0.5705993654152709,0.4477048868285516,0.1499316529859127,-0.0200837730740923,0.6498399857115222,-0.30541829974039786
0.60980855901558,0.4437911043288869,0.1987075055039167,-0.0237839264796265,0.8590413390999493,-0.3617939125380009
0.6764733706170423,0.4389079191398414,0.2556273914613283,-0.0276928560196709,1.1031727394196071,-0.42135044278160055
0.7313846066193487,0.4330408625645585,0.3151898516170284,-0.0316890088200685,1.3586382337667808,-0.4822359083999503
0.7764705880192357,0.4301109514511312,0.3593711629212728,-0.0356358031464617,1.5481334376878537,-0.5423693473010859
0.800008347487337,0.4271738059892756,0.378250579452339,-0.0393993060437859,1.6291079216914912,-0.5997101542484063
0.800008347487337,0.4252205319136574,0.382530109041078,-0.0428622844004797,1.6474629751782457,-0.652472163161727
0.800008347487337,0.4222906208002301,0.3795962080768465,-0.0459335618169689,1.6348793703668634,-0.6992662085564532
0.7764705880192357,0.4193534753383746,0.3532186346916581,-0.0485526411042038,1.5217450269077284,-0.739170554025627
0.7156825642173513,0.4174002012627563,0.2959520023204386,-0.0506902698174694,1.2761264189780257,-0.7717395087246017
0.6509766818824151,0.4154469271871381,0.2278221930834765,-0.0523459461788648,0.9839152619673541,-0.7969654275550389
0.5843118702809528,0.4134864187630917,0.1594707915267439,-0.053543369255773,0.6907536876742912,-0.8152093899912247
0.5058934830803345,0.4125097817252826,0.0839651829667075,-0.054324672668712,0.36690746697838655,-0.8271133447352135
0.4352802046760309,0.4115331446874735,0.007907374657088,-0.0547440685276282,0.04069284206215794,-0.8335032686004821
0.3705743223410945,0.4115331446874735,-0.0531599177749751,-0.0548613605158807,-0.22122693104357813,-0.8352903317271334
0.3294061994742595,0.4115331446874735,-0.0987356967121914,-0.0547357192107086,-0.41670305587149514,-0.8333760582375063
0.2901970058739504,0.4125097817252826,-0.1367306013653186,-0.0544201529748469,-0.5796645432666052,-0.8285680846279991
0.2588235293397452,0.4134864187630917,-0.1687639307247807,-0.0539572031916013,-0.717056623765108,-0.8215145722828211
0.2392036284046959,0.4134864187630917,-0.1913282380181794,-0.0533764560796696,-0.8138357343364497,-0.8126662974338326
0.229408982072066,0.414470290149329,-0.1993104482689737,-0.0526944055708908,-0.8480717158988584,-0.8022745619631323
0.2392036284046959,0.4154469271871381,-0.1917263934350205,-0.0519169782157996,-0.815543436975401,-0.7904296629156135
0.2549056708066933,0.4164235642249472,-0.177838467622626,-0.051044664809854,-0.7559776328792333,-0.7771390780608896
0.2647003171393232,0.4164235642249472,-0.1658877942297433,-0.0500797525045165,-0.7047207728013638,-0.7624376544853187
0.2843202180743724,0.4174002012627563,-0.1511145118119736,-0.0490346705691896,-0.6413576429689106,-0.7465147647911675
0.3039095107396323,0.4174002012627563,-0.1286303418523346,-0.0479400187796507,-0.5449222442511604,-0.7298366277866454
0.3294061994742595,0.4183768383005654,-0.1063333460266056,-0.0468505414732526,-0.449289642001577,-0.7132373293128548
0.3451082418762568,0.4183768383005654,-0.0916225142055043,-0.045847254512586,-0.3861943649829341,-0.6979512287055589
0.3549028882088867,0.4183768383005654,-0.0801996592537228,-0.0450342017364657,-0.3372013368325739,-0.6855635400162147
0.3705743223410945,0.4193534753383746,-0.0684359478178121,-0.0445289353545959,-0.2867463631884937,-0.6778652911108223
0.3803995769435139,0.4203301123761837,-0.0588095209510972,-0.0444467567982744,-0.24545827851446114,-0.676613216949649
0.3843174354765659,0.4203301123761837,-0.0522597500209537,-0.0448799276694482,-0.21736607976786979,-0.6832130171827879
0.3941120818091958,0.4213067494139927,-0.050262387251577,-0.0458742729232835,-0.20879932033691928,-0.6983628817623242
0.3843174354765659,0.4203301123761837,-0.0537441706322333,-0.0474065845178633,-0.22373281217429453,-0.7217092124879924
0.3843174354765659,0.4183768383005654,-0.0588100998480927,-0.0493667368672704,-0.24546076142411172,-0.7515741336853698
0.3803995769435139,0.4164235642249472,-0.0635139230415508,-0.051548282514199,-0.2656356251603853,-0.7848122076818687
0.374522789143936,0.4154469271871381,-0.0681991139889658,-0.0536504891258286,-0.2857305745356041,-0.8168414705174407
0.3705743223410945,0.4134864187630917,-0.0739632112785963,-0.0552934247080081,-0.31045299130132153,-0.8418732705757369
0.3646975345415166,0.4115331446874735,-0.0828041146231834,-0.0560459734411429,-0.34837193785753395,-0.8533391184314177
0.3588207467419387,0.4105565076496644,-0.0856328726624404,-0.0554647506165019,-0.3605045809518299,-0.8444835956138821
0.374522789143936,0.4115331446874735,-0.0738364660966089,-0.0531400085276376,-0.30990937674128,-0.8090637777057694
0.3843174354765659,0.414470290149329,-0.063649436180226,-0.0487431019837554,-0.2662168457961969,-0.7420724198733059
0.3803995769435139,0.4193534753383746,-0.0704852803084668,-0.0420692500018089,-0.29553602258869777,-0.6403894748797285
0.3588207467419387,0.4271738059892756,-0.0867016770094329,-0.0330694298736712,-0.3650887205281855,-0.503268031743585
0.3490261004093087,0.4389079191398414,-0.1080171098601466,-0.0218663615775545,-0.4565113645257142,-0.33257785455732447
0.3137347653420516,0.4535647090554062,-0.1329524312842004,-0.0087516222393569,-0.5634598384075802,-0.1327614183614907
0.3098169068089997,0.4721425158190639,-0.1447403695293647,0.0058362725047085,-0.6140187216918305,0.0895000436615651
0.3196115531416296,0.4897364511964843,-0.1345868106532432,0.0213499394376082,-0.57046974922006,0.32586658964639714
0.3352829872738374,0.5083070236117138,-0.1179225718531041,0.0371818259958578,-0.4989962407070057,0.5670815363371275
0.3392008458068894,0.523947684913516,-0.1150761536505323,0.0527164097098591,-0.4867878525487941,0.8037667708256827
0.3352829872738374,0.5366584351018908,-0.1231465953641556,0.0673786144072689,-0.5214022619701203,1.0271604208143743
0.3352829872738374,0.5483853139040282,-0.121821588139762,0.0806724350865709,-0.515719259207836,1.2297053439778773
0.3235294116746816,0.5591427900167849,-0.1258822479769302,0.092206057649631,-0.5331355726033232,1.4054318527210738
0.3294061994742595,0.5679397577054951,-0.1432335895769476,0.1017024210035849,-0.607556089281913,1.5501186385789594
0.3352829872738374,0.5737995799323498,-0.1174837967592353,0.1089965886321911,-0.4971143188392822,1.661252725424136
0.3451082418762568,0.5777133624320144,-0.0984244085590177,0.1140231057966186,-0.41536792999309696,1.7378368435200071
0.2999916522065803,0.5796666365076326,-0.1961009819448911,0.1167975748212657,-0.8343062015307635,1.7801087101995094
0.2588235293397452,0.5796666365076326,-0.180642069053478,0.1173969408631878,-0.7680023783919738,1.7892406634457978
0.7156825642173513,0.5786899994698235,0.2819932839082228,0.1159424424003398,1.2162569829220262,1.7670798951831668
1.503906727835743,0.5767367253942053,0.9466777531832123,0.1125879261490678,4.067112137063503,1.7159704171214933
1.503906727835743,0.5737995799323498,1.1807345976223134,0.1075144687039806,5.070990205794555,1.638671115951557
1.3784434299687118,0.5698930317811133,0.7673802456606802,0.1009303357207903,3.2980987975418596,1.5383551314539698
0.5196059879460164,0.5640259752058304,0.1606202320112079,0.0930736840749988,0.6956836784909676,1.4186510266440648
0.4039067281418257,0.5552290075171202,-0.1040776137367467,0.0842145086369339,-0.4396147265760338,1.2836724488760771
0.4098141242111931,0.5444787657527919,-0.0683133177354128,0.0746524442724752,-0.2862203984358613,1.137984641081347
0.3705743223410945,0.5327446526022261,-0.0685838046527687,0.0647081648500474,-0.2873805263734269,0.9864733968633458
0.3549028882088867,0.5210177738000886,-0.1305116520829214,0.0547079519279876,-0.5529912502462269,0.8341099487034882
0.3352829872738374,0.5092836606495229,-0.1336149986310223,0.0449629851349885,-0.5663016131487794,0.6856354357749352
0.3549028882088867,0.4995100559230035,-0.1086817570005163,0.0357464649634097,-0.45936205957486304,0.5452123463546167
0.3705743223410945,0.4916897252721025,-0.1017880162953416,0.0272724186356093,-0.4297945623199641,0.41610160357014153
0.374522789143936,0.4858226686968196,-0.1015015793847204,0.0196798285160256,-0.42856602429819945,0.30042074556237447
0.3646975345415166,0.479962846469965,-0.0998725698855439,0.0130247101200435,-0.4215791450471492,0.1990232258668564
0.3803995769435139,0.4740957898946821,-0.0958867562493639,0.0072813213256274,-0.4044838496500033,0.11151683698692061
0.3803995769435139,0.4692053703572084,-0.0940573802949874,0.0023522265271924,-0.39663759159904366,0.03641704804745833
0.3803995769435139,0.4652988222059719,-0.0899620943369561,-0.001914251810528,-0.3790727655487653,-0.02858710297421028
0.3999888696087737,0.4623689110925446,-0.0746726032676214,-0.0057015187958597,-0.3134955985859852,-0.08628998005137856
0.419608770543823,0.4604084026684982,-0.0602739042593942,-0.0092000186914935,-0.2517390702210146,-0.13959319585689495
0.419608770543823,0.4574784915550708,-0.0478822616072716,-0.0125835348692757,-0.19859087742268425,-0.19114451739069405
0.4607768934106581,0.4545485804416435,-0.022860537271395,-0.0159895413863426,-0.09127181840171981,-0.24303850219280648
0.4745200065461294,0.4506347979419788,0.0034933141650741,-0.0195061052087817,0.02176078078189961,-0.296616940355768
0.5058934830803345,0.4457443784045051,0.0229279547119805,-0.0231668156884381,0.10511664019060356,-0.35239159992976543
0.5254827757455944,0.4408611932154596,0.0553779320076334,-0.0269538941800756,0.24429573839639177,-0.41009160511316217
0.5901886580805307,0.4369474107157949,0.102684171728458,-0.0308082860616898,0.44719387061583166,-0.46881719847994197
0.6196032053482099,0.4320642255267494,0.1483399677090429,-0.0346444607186473,0.6430131913676062,-0.5272652338400843
0.6764733706170423,0.4281504430270847,0.1935869118135425,-0.0383670629645421,0.8370789319891129,-0.5839828776275462
0.7215593520169293,0.4252205319136574,0.2403866123818442,-0.0418865521148697,1.0378044999009806,-0.6376058861459155
0.7509738992846084,0.4232672578380392,0.2750787951340367,-0.0451314855635587,1.1866004964666663,-0.6870457583911235
0.7764705880192357,0.4213067494139927,0.2901765153564609,-0.0480560084769974,1.2513551514969423,-0.7316038491824796
0.7705938002196577,0.4193534753383746,0.2931738382102387,-0.0506421711255197,1.264210775031578,-0.771006676072482
0.7705938002196577,0.4174002012627563,0.2875427168416242,-0.0528976437954115,1.2400586966855602,-0.805371103699514
0.7450971114850305,0.4154469271871381,0.2616794115964057,-0.0548500338894074,1.1291300674340148,-0.8351177590150382
0.6901858754827241,0.4134864187630917,0.2094427568168288,-0.0565392676609667,0.90508521096866,-0.8608549592315554
0.6293978516808398,0.4125097817252826,0.1448524274330841,-0.0580094439120012,0.6280550080030423,-0.8832545945949402
0.5646919693459035,0.4105565076496644,0.0816390682999537,-0.0593013209984882,0.35693067905362513,-0.902937660248639
0.5058934830803345,0.4095798706118552,0.0220618353285581,-0.0604462763337561,0.1014018235784073,-0.9203822231024578
0.4549001056110801,0.4086032335740461,-0.0298496108513235,-0.0614622587538611,-0.1212482017219836,-0.9358617519888397
0.4156909120107711,0.407626596536237,-0.0683005689132622,-0.0623519886408766,-0.2861657182875844,-0.9494176947045714
0.3901942232761438,0.407626596536237,-0.0958427982018975,-0.0631034754686589,-0.40429531203256464,-0.9608673633486305
0.3646975345415166,0.407626596536237,-0.1197671170390217,-0.0636928129935055,-0.506907560127566,-0.9698465219040995
0.3451082418762568,0.407626596536237,-0.1408824411435809,-0.0640891367888477,-0.5974719306483793,-0.9758849193379114
0.3352829872738374,0.407626596536237,-0.1521697382447266,-0.0642615189810336,-0.6458835463917505,-0.9785113379359457
0.3294061994742595,0.4086032335740461,-0.1535184383251136,-0.064187368033894,-0.6516681686498217,-0.977381572592091
0.3352829872738374,0.4086032335740461,-0.1561210277880877,-0.0638615752059968,-0.6628307667359887,-0.9724177864176321
0.3235294116746816,0.407626596536237,-0.1594599475935276,-0.0633052323443735,-0.6771515116557341,-0.963941335224372
0.3392008458068894,0.407626596536237,-0.1495446049193866,-0.0625723166404826,-0.6346242568840278,-0.9527746166029123
0.3588207467419387,0.407626596536237,-0.1301039259428777,-0.0617524438257352,-0.5512424984375836,-0.9402830176658656
0.3646975345415166,0.4086032335740461,-0.1193896525901245,-0.0609678323911137,-0.5052886017805814,-0.9283286618360138
0.374522789143936,0.4086032335740461,-0.1186899357553191,-0.0603631533937056,-0.5022874915739289,-0.9191157602915169
0.3646975345415166,0.4105565076496644,-0.1176424067610701,-0.0600879714232702,-0.49779460273657616,-0.9149230821741868
0.3803995769435139,0.4115331446874735,-0.1130050831297375,-0.0602728627950469,-0.4779049579698994,-0.9177400908877474
0.3843174354765659,0.4115331446874735,-0.1027709929803047,-0.0610017725523578,-0.43401058402389325,-0.9288457748253629
0.3941120818091958,0.4125097817252826,-0.0912234741347041,-0.0622844377739206,-0.3844828680319213,-0.9483884883170853
0.4039067281418257,0.4125097817252826,-0.092636440118148,-0.0640334686484712,-0.39054312901698895,-0.9750367584150875
0.3803995769435139,0.4105565076496644,-0.1011905280252539,-0.0660507220246889,-0.42723191403637095,-1.0057716720222405
0.3941120818091958,0.4086032335740461,-0.098974770215899,-0.0680268107704267,-0.41772845056893243,-1.0358794004793346
0.3941120818091958,0.4066499594984279,-0.0963056674943597,-0.069555992303966,-0.4062805747686551,-1.059178041531113
0.3803995769435139,0.4046894510743815,-0.1063160723942653,-0.070166481444422,-0.4492155547826567,-1.068479466533658
0.374522789143936,0.4046894510743815,-0.1168899584017578,-0.0693638036500963,-0.4945673251597274,-1.056249851278664
0.3705743223410945,0.4056660881121906,-0.1197898172036195,-0.06668256149369,-0.5070049219349121,-1.0153983910662059
0.374522789143936,0.4086032335740461,-0.1143495306160297,-0.0617403020070237,-0.4836713407017682,-0.940098024668193
0.3901942232761438,0.414470290149329,-0.0997856335284874,-0.0542863378458046,-0.4212062719426112,-0.8265292745910783
0.3999888696087737,0.4242438948758483,-0.0911072563404896,-0.0442385960028293,-0.3839844058096871,-0.6734416748222057
0.3941120818091958,0.437924047753604,-0.0957950649264418,-0.0317029331188456,-0.40409058232900263,-0.4824480593002784
0.3901942232761438,0.4565018545172618,-0.0993691688698378,-0.0169717647502191,-0.41942004031917035,-0.25800367740955304
0.3803995769435139,0.4750724269324912,-0.1091685739709571,-0.0005019354508351,-0.4614500347472309,-0.00706902209608185
0.3549028882088867,0.4926663623099116,-0.1400094858821878,0.0171251138510946,-0.5937277947142392,0.2614970607921438
0.3196115531416296,0.5122208061113784,-0.1629842704264136,0.0352553204276779,-0.6922674567054969,0.5377292581851744
0.3451082418762568,0.5307913785266078,-0.1521382142630082,0.0532191223443886,-0.645748338921266,0.8114261107844828
0.3588207467419387,0.5493619509418374,-0.1286604801567179,0.0703864536540369,-0.545051508502636,1.0729879209606137
0.374522789143936,0.5650026122436396,-0.1157902563655955,0.0862130522733409,-0.4898506643037384,1.3141223005056553
0.3705743223410945,0.5786899994698235,-0.1172861195890328,0.1002730425748441,-0.4962664744776672,1.528340599668623
0.374522789143936,0.5894402412341518,-0.1256505123656714,0.1122748970707635,-0.5321416503856491,1.7112010996963076
0.3392008458068894,0.598237208922862,-0.1348373472561297,0.1220603846225796,-0.5715443095545585,1.860292987733124
0.3490261004093087,0.604104265498145,-0.1537928256561074,0.1295886158841845,-0.652845025599177,1.9749932728673223
0.3392008458068894,0.6080180479978096,-0.1541370324776878,0.1349094082577614,-0.6543213408085025,2.056060974055215
0.3490261004093087,0.6099713220734279,-0.1203799834095682,0.1381315799706886,-0.5095361656269215,2.105154048029846
0.3549028882088867,0.6099713220734279,-0.1557667201494003,0.1393922235442412,-0.6613111287655011,2.1243612392430786
0.2686181756723751,0.6099713220734279,-0.2257968455002336,0.1388324085671281,-0.9616728086756128,2.115831886827359
0.4490233178115022,0.6089946850356187,0.0016346902019927,0.1365831736431822,0.013789076989059325,2.0815624976248555
1.1764594576280094,0.6089946850356187,0.6145937215905002,0.132763315266039,2.6427920019672047,2.023363057436938
1.503906727835743,0.6060575395737632,1.0972734502643553,0.1274877964713532,4.713022398339197,1.9429851454209506
1.503906727835743,0.6011743543847177,0.9438609374105242,0.1208831749310952,4.05503071477212,1.8423569968497597
0.8156797816195448,0.5943306607716257,0.3639211370843306,0.113104895086246,1.567648437501393,1.7238469663983842
0.4549001056110801,0.5845570560451063,-0.0328311421537201,0.1043509931459203,-0.13403609473525477,1.59047233779032
0.4294034168764529,0.5747834513185871,-0.0818434578857647,0.0948677509889651,-0.3442516471965861,1.4459854667576777
0.3999888696087737,0.5630493381680214,-0.0717354598195744,0.0849447867695819,-0.3008980866470482,1.294798981408254
0.3646975345415166,0.5513224593658839,-0.1237162320860904,0.0748994797413388,-0.5238454539804397,1.1417484785263294
0.3490261004093087,0.539588346215318,-0.1493821526037349,0.0650529621294639,-0.6339274931671277,0.9917267352489864
0.3392008458068894,0.5288381044509897,-0.1424088160981829,0.0557017140894241,-0.6040186067144322,0.849250929275337
0.3490261004093087,0.5210177738000886,-0.1357950831102126,0.0470897363938523,-0.5756520724437628,0.7180386613566623
0.3705743223410945,0.5131974431491875,-0.126881390075987,0.0393861934442072,-0.5374209283389894,0.6006673237658097
0.3588207467419387,0.5063537495360956,-0.1196336004594407,0.0326723867458531,-0.5063349028041941,0.49837562789767026
0.3803995769435139,0.5024472013848591,-0.1107764028317109,0.0269402087195818,-0.46834606949234403,0.4110400465099724
0.3941120818091958,0.4985334188851945,-0.0941132119467919,0.0221021986996061,-0.3968770555246634,0.3373280271139287
0.4039067281418257,0.4965801448095762,-0.0800065213207201,0.0180113248741197,-0.33637296141955797,0.2749993900243065
0.4156909120107711,0.494626870733958,-0.0726810332004545,0.0144869706177316,-0.30495368425931285,0.22130225665071476
0.419608770543823,0.4916897252721025,-0.0667362170713217,0.0113426095189215,-0.279456158011035,0.17339470678069205
0.4294034168764529,0.4887598141586752,-0.056028183366308,0.0084105220082748,-0.2335290234234666,0.12872136163190037
0.4490233178115022,0.4858226686968196,-0.0366908015411822,0.0055596760518612,-0.1505903101060138,0.08528581446134127
0.4706021480130775,0.4809394835077741,-0.0155495720540057,0.0027043966321757,-0.05991483048461459,0.041782718953895626
0.4901914406783372,0.4760490639703003,0.0049363390586933,-0.0001966428843882,0.027949965493881786,-0.0024175783234385534
0.5196059879460164,0.4721425158190639,0.0362439558767457,-0.0031496624588709,0.16222943928237737,-0.04740984482400665
0.5646919693459035,0.4682287333193992,0.0776804706873102,-0.0061402963568173,0.33995211414223714,-0.09297520392448201
0.6000139126829501,0.4652988222059719,0.1175772184439682,-0.0091496542167473,0.5110706737493447,-0.13882584169184878
0.6450998940828371,0.4623689110925446,0.1603435105477428,-0.0121682481233127,0.6944968103650407,-0.18481720005423713
0.6960932715520916,0.4604084026684982,0.2125808102514088,-0.0152049283661873,0.9185444329325819,-0.23108412220572938
0.7450971114850305,0.4584551285928799,0.2614788726599474,-0.0182892838441234,1.1282699488558996,-0.27807742521155104
0.7764705880192357,0.4565018545172618,0.2941318515344818,-0.0214674530573861,1.268319728000095,-0.32650007620331273
0.796090488954285,0.4535647090554062,0.3122596425090227,-0.0247926372245637,1.3460704634570848,-0.3771626500331296
0.796090488954285,0.4496581609041697,0.315406284043744,-0.0283125436676404,1.3595665200856992,-0.43079201643234016
0.7803884465522877,0.4457443784045051,0.2966207588176122,-0.032056375082778,1.2789947392035794,-0.48783310827561954
0.7411792529519786,0.4418378302532686,0.2606053939352588,-0.0360238428064117,1.124523567769205,-0.5482815274790039
0.7000111300851435,0.437924047753604,0.2190075548803053,-0.0401781691523234,0.9461089675299152,-0.6115769284647332
0.6509766818824151,0.4330408625645585,0.1687936522403759,-0.0444443266814181,0.7307397664009255,-0.6765761916396338
0.5843118702809528,0.4291270800648938,0.1051839729525419,-0.0487129552460175,0.4579156063166554,-0.7416131035619116
0.5254827757455944,0.4242438948758483,0.0440940910099562,-0.052849564072487,0.1958989460028082,-0.8046385600598492
0.4803967943457073,0.4183768383005654,0.0019188290693688,-0.056707828636203,0.015007758622217739,-0.863423157690164
0.4549001056110801,0.414470290149329,-0.0261185084978066,-0.0601451284004854,-0.10524537200827708,-0.9157939270454687
0.4294034168764529,0.4115331446874735,-0.0481182088476388,-0.063038083461453,-0.19960286346628772,-0.959871049392354
0.4156909120107711,0.4095798706118552,-0.0640280676612006,-0.0652958802260786,-0.26784080958496126,-0.9942708869741793
0.3999888696087737,0.4086032335740461,-0.0774143883193645,-0.0668696732045229,-0.32525521146641806,-1.0182492289109384
0.3901942232761438,0.4095798706118552,-0.0886613680518964,-0.0677571863035429,-0.37349390459247656,-1.0317713965995312
0.3901942232761438,0.4095798706118552,-0.0865899251767074,-0.0680025607939916,-0.3646094129724399,-1.0355099273434878
0.4039067281418257,0.4095798706118552,-0.0723497899331164,-0.0676922348598748,-0.30353297019178616,-1.0307817950783076
0.4156909120107711,0.4105565076496644,-0.063763815543317,-0.0669479918671627,-0.2667074229224401,-1.0194424936532065
0.4098141242111931,0.4105565076496644,-0.0629452064251027,-0.0659182303112726,-0.2631963795149809,-1.0037530255728049
0.419608770543823,0.4105565076496644,-0.0581289492572108,-0.0647680987898061,-0.2425392824930931,-0.9862295982404314
0.4254855583434009,0.4105565076496644,-0.0512895996441557,-0.0636686095694511,-0.2132050705524692,-0.9694777580412752
0.419608770543823,0.4105565076496644,-0.051039550421322,-0.0627844154117519,-0.21213260060822323,-0.9560061578103772
0.4254855583434009,0.4105565076496644,-0.0547688006043407,-0.0622597964247815,-0.2281274862972756,-0.9480130522187337
0.4156909120107711,0.4105565076496644,-0.0541111988781641,-0.0622026708350377,-0.22530700927832592,-0.9471426855676066
0.4254855583434009,0.4115331446874735,-0.0495923062480816,-0.0626671102378205,-0.2059253192569921,-0.9542188937864529
0.4254855583434009,0.4105565076496644,-0.0496051598273079,-0.0636357707821518,-0.20598044871206483,-0.9689774256078255
0.4156909120107711,0.4105565076496644,-0.0548935996097581,-0.0650046094913646,-0.22866275363730237,-0.989833080115969
0.4098141242111931,0.4105565076496644,-0.0626318550696714,-0.06657296279903,-0.2618524044892624,-1.0137285431177305
0.4039067281418257,0.4095798706118552,-0.0718299423824346,-0.0680422828092481,-0.3013033256946828,-1.036115132778563
0.3941120818091958,0.4095798706118552,-0.0729323228764186,-0.069026396532498,-0.3060314745508269,-1.0511091095493001
0.4039067281418257,0.4095798706118552,-0.0685177143019584,-0.0690750081480958,-0.2870970625256074,-1.05184975711659
0.3999888696087737,0.4095798706118552,-0.0755556594728165,-0.0677103544553164,-0.31728305782468685,-1.0310578656042313
0.3803995769435139,0.4105565076496644,-0.0821178459175976,-0.06447464316727,-0.345428507151865,-0.9817585023867754
0.4039067281418257,0.4125097817252826,-0.0714537343146484,-0.0589834974389439,-0.2996897560106374,-0.8980952940094374
0.4098141242111931,0.4164235642249472,-0.0608609034557427,-0.050978579230538,-0.2542567304970436,-0.7761321968257895
0.4039067281418257,0.4252205319136574,-0.059054523369401,-0.0403714270095844,-0.24650910253591057,-0.6145214091218717
0.4156909120107711,0.437924047753604,-0.0595218966545414,-0.0272708179755426,-0.2485136830556027,-0.41492026252852005
0.3941120818091958,0.4555252174794526,-0.0714541733068697,-0.0119878910320873,-0.2996916388637724,-0.18206927573168943
0.374522789143936,0.4760490639703003,-0.0924170596276817,0.0049833501308804,-0.38960219834856796,0.07650490096790605
0.3646975345415166,0.4965801448095762,-0.1047442627549093,0.023008352937139,-0.4424740077497089,0.3511342115693234
0.3588207467419387,0.5180806283382331,-0.1078951571480462,0.041371316286879,-0.45598830503820703,0.6309126959081535
0.3588207467419387,0.5376350721396999,-0.1064362841438517,0.0593426792652338,-0.44973114722047997,0.9047247489969737
0.3646975345415166,0.5552290075171202,-0.1037278533163123,0.0762447371645281,-0.4381145917851642,1.1622448480793839
0.3549028882088867,0.5698930317811133,-0.108256274826743,0.091505961461429,-0.4575371515107104,1.3947651729104147
0.3588207467419387,0.5806432735454417,-0.111192860393251,0.1046969542158433,-0.4701322706760317,1.5957434077118677
0.3490261004093087,0.5865103301207246,-0.1099468615960641,0.1155445372471247,-0.46478813784727924,1.7610174041485318
0.3392008458068894,0.5923773866960075,-0.1279248235502044,0.123924527987513,-0.5418962513463421,1.8886951140837567
0.3352829872738374,0.597260571885053,-0.1375577964937993,0.129837430127113,-0.5832124123752097,1.9787842117502576
0.3352829872738374,0.5992210803090994,-0.1093055241933078,0.1333737973431036,-0.4620374190856602,2.0326643748215076
0.3451082418762568,0.6001977173469085,-0.134070261314614,0.1346769877955731,-0.5682542508708873,2.0525198111501934
0.274494963471953,0.6001977173469085,-0.1955906461822975,0.1339104442692024,-0.832117353428566,2.040840738339172
0.4294034168764529,0.598237208922862,0.0025967510019328,0.1312348568426043,0.017915389723729244,2.0000754337054705
1.0921642826278133,0.5943306607716257,0.5768078874744433,0.1267980594198408,2.480727225486427,1.932476297628298
1.503906727835743,0.5894402412341518,1.0913526430285323,0.1207377614548167,4.687627847081913,1.840141474157655
1.503906727835743,0.5845570560451063,1.0164122949610186,0.1131946642616307,4.366206048593885,1.72521469138651
0.8960877063564784,0.5767367253942053,0.4268476797848847,0.104331519909978,1.8375426006459816,1.590175643170103
0.3588207467419387,0.566963120667686,-0.0694593657899454,0.0943525490593802,-0.29113583900079854,1.4381358396445383
0.3392008458068894,0.5562056445549294,-0.1532837836130634,0.0835175500037612,-0.6506617263058001,1.2730535729178738
0.3549028882088867,0.545455402790601,-0.0926398707987573,0.0721460478706252,-0.39055784332723587,1.0997971343534736
0.3352829872738374,0.531768015564417,-0.1206645790485323,0.0606087725617041,-0.5107568063695463,0.9240149722997952
0.3098169068089997,0.517103991300424,-0.1551682053566499,0.0493062785546994,-0.6587440776899682,0.7518099429534149
0.3137347653420516,0.5034238384226682,-0.1467530026974098,0.0386372029820482,-0.6226509764017621,0.5892556897993316
0.3098169068089997,0.4916897252721025,-0.1440128476465093,0.0289609845002838,-0.6108983546524872,0.44182862754373164
0.3196115531416296,0.4819161205455832,-0.1403511738325202,0.0205612785179884,-0.595193306395858,0.3138505357804714
0.3352829872738374,0.4760490639703003,-0.1272019221104799,0.0136164031854263,-0.5387957015507032,0.20803827348600554
0.3294061994742595,0.4721425158190639,-0.121912389014006,0.0081818851744283,-0.5161087073630207,0.1252378461655087
0.3451082418762568,0.4701892417434457,-0.1161323697949772,0.0041878806252035,-0.4913180008800205,0.06438511134586812
0.3549028882088867,0.4692053703572084,-0.1033659768045444,0.0014515251072018,-0.4365624906508297,0.022693942831416486
0.3588207467419387,0.4672520962815901,-0.0941763572289109,-0.0002982176587851,-0.39714788786889593,-0.003965173659037024
0.3705743223410945,0.466275459243781,-0.0894228286138016,-0.0013873661267425,-0.3767598358244049,-0.02055946194363433
0.374522789143936,0.4652988222059719,-0.0813742725220988,-0.0021602900350312,-0.34223929460812613,-0.03233574638376633
0.3901942232761438,0.4633455481303537,-0.0637237579586892,-0.0029443633923885,-0.2665356145278146,-0.04428190405743991
0.419608770543823,0.4613850397063073,-0.0385543100492152,-0.0040197868412596,-0.1585829638845911,-0.06066707767114502
0.4451054592784502,0.459431765630689,-0.0102401658578748,-0.0055972574027674,-0.037142599870921174,-0.08470145133850979
0.4803967943457073,0.4555252174794526,0.0272055322649227,-0.0078048558469353,0.12346332132691279,-0.11833646628541919
0.5294006342786464,0.4525880720175971,0.0722384577093598,-0.0106843253035443,0.3166111283598897,-0.1622081216890895
0.5705993654152709,0.4496581609041697,0.1156956710786871,-0.014195969219392,0.5030006506752027,-0.21571160005482148
0.6196032053482099,0.4457443784045051,0.1673971618891466,-0.0182307588019356,0.7247501699840672,-0.2771857364744279
0.6862680169496722,0.4408611932154596,0.2293799354606188,-0.0226278688492494,0.9905964740160494,-0.3441801948893283
0.7254772105499813,0.4349941366401767,0.2727197811302784,-0.0271956410117141,1.176482602124044,-0.4137748647734551
0.7411792529519786,0.4301109514511312,0.2865430277460638,-0.0317338134150279,1.2357709948625795,-0.48291855212310153
0.7450971114850305,0.4252205319136574,0.293239267554209,-0.036054778540496,1.2644914037977253,-0.5487528649548332
0.7548917578176605,0.4213067494139927,0.297603367585224,-0.0400017444458827,1.2832091828970003,-0.6088889180370154
0.7254772105499813,0.4174002012627563,0.2776840722526491,-0.0434620519590782,1.1977746220027485,-0.6616102339242907
0.6862680169496722,0.414470290149329,0.2272139448218175,-0.0463745164404656,0.9813064637000506,-0.7059846021988307
0.615685346815158,0.4125097817252826,0.1674201615290204,-0.0487304202782587,0.7248488162514445,-0.7418792011495562
0.5646919693459035,0.4105565076496644,0.1098515342635574,-0.0505685698370339,0.4779349415589759,-0.769885285339094
0.4941092992113892,0.4105565076496644,0.0414709527306242,-0.0519655408823663,0.18464821331784514,-0.7911695646944663
0.419608770543823,0.4086032335740461,-0.0325543383035295,-0.0530227602521031,-0.1328488732497538,-0.8072773805869814
0.3705743223410945,0.4066499594984279,-0.0811954295018776,-0.0538523092343182,-0.34147223058068465,-0.8199164058090322
0.3490261004093087,0.4056660881121906,-0.1032691406542752,-0.0545632467975549,-0.43614715698370893,-0.8307482650309657
0.3294061994742595,0.4046894510743815,-0.125003804742871,-0.0552499123546818,-0.5293678985606756,-0.8412103154724792
0.2999916522065803,0.4037128140365724,-0.1464594465358955,-0.0559832367932622,-0.6213919036615853,-0.8523832615840091
0.3039095107396323,0.4027361769987633,-0.1551259022443453,-0.0568056993654625,-0.6585626381478629,-0.8649143181184586
0.2843202180743724,0.4017595399609542,-0.1601887267355236,-0.0577302497538445,-0.6802772711239164,-0.8790007867036097
0.2901970058739504,0.4017595399609542,-0.1672924026422007,-0.0587432337861294,-0.7107451878694221,-0.8944346320919749
0.2843202180743724,0.400782902923145,-0.1637851913194848,-0.0598110660528761,-0.6957026346908681,-0.9107041462999157
0.2999916522065803,0.3988296288475269,-0.1512378345656958,-0.0608900242076569,-0.6418865786133005,-0.9271431747649955
0.3098169068089997,0.3968691204234804,-0.1455181059454784,-0.061938049094695,-0.6173544606370471,-0.9431109033314768
0.3039095107396323,0.3939392093100531,-0.1415553918882175,-0.0629268496671481,-0.6003582401493719,-0.9581762890323208
0.3294061994742595,0.3919859352344348,-0.1267737443850149,-0.0638520872438753,-0.5369592321701836,-0.9722732276331232
0.3352829872738374,0.3900326611588167,-0.113740291443075,-0.0647391896226827,-0.48105829238093517,-0.9857891375801753
0.3352829872738374,0.3890487897725793,-0.1153815210510806,-0.0656426308018861,-0.4880975841101611,-0.9995539858234951
0.3352829872738374,0.3880721527347702,-0.1181056437717408,-0.0666373824895209,-0.49978144262904445,-1.0147100428366949
0.3392008458068894,0.3880721527347702,-0.1091593417919108,-0.0678026045459031,-0.4614104376053768,-1.0324633898670041
0.3549028882088867,0.3880721527347702,-0.0983520295711779,-0.0691992537991257,-0.41505749395904956,-1.0537427663912247
0.3549028882088867,0.3880721527347702,-0.0955858285312231,-0.0708448279605951,-0.40319316004321665,-1.0788147678974287
0.3549028882088867,0.3870955156969611,-0.0956317783944327,-0.0726895725953586,-0.4033902406286951,-1.1069213347993132
0.3549028882088867,0.3851422416213429,-0.0966481749338596,-0.0745988617250563,-0.4077496012682439,-1.1360113029432068
0.3490261004093087,0.3831889675457247,-0.1032543656491836,-0.0763459520616623,-0.43608378646526763,-1.1626300069654836
0.3392008458068894,0.3812284591216783,-0.1095381876654036,-0.0776179475470841,-0.4630353209312205,-1.1820101561396192
0.3451082418762568,0.37927518504606,-0.1082546578676909,-0.0780358314148993,-0.4575302163162523,-1.188377043277617
0.3490261004093087,0.3782985480082509,-0.1021464708716458,-0.077187180312861,-0.43133198665228994,-1.1754469777681134
0.3549028882088867,0.3802518220838691,-0.094602079098576,-0.0746680526228398,-0.39897382399719045,-1.1370654968738498
0.3646975345415166,0.3822123305079156,-0.0883109418544589,-0.0701288968480206,-0.3719909142605367,-1.0679068268558787
0.3705743223410945,0.3880721527347702,-0.0823438625283779,-0.0633184331551118,-0.3463979003745883,-0.9641424630461762
0.3705743223410945,0.3968691204234804,-0.0756517381910877,-0.054119482719249,-0.3176951428392284,-0.8239870664777811
0.374522789143936,0.4086032335740461,-0.0838866262154194,-0.0425716906419439,-0.3530148682926471,-0.6480446707263833
0.3352829872738374,0.4252205319136574,-0.1124286491191986,-0.0288779007810738,-0.4754326121487916,-0.43940580895013726
0.3196115531416296,0.4408611932154596,-0.1311027747759827,-0.0133933055457493,-0.5555265963452292,-0.20348219994284164
0.3352829872738374,0.4574784915550708,-0.1218744687402952,0.0034010391353427,-0.515946065970372,0.05239677834888056
0.3392008458068894,0.4770257010081094,-0.1069733805961253,0.0209366434904232,-0.4520347728654502,0.31956960416074903
0.3451082418762568,0.4956035077717671,-0.1108961817254,0.0386028475354596,-0.46885980539594263,0.5887322495139989
0.3235294116746816,0.5131974431491875,-0.1269898927075837,0.0557931793436842,-0.5378862999563867,0.850644495755821
0.3235294116746816,0.5298147414887988,-0.1323403008833953,0.0719472503922275,-0.5608343895084275,1.0967682519156465
0.3039095107396323,0.5435021287149827,-0.1403014780827237,0.0865836092460682,-0.5949801595705669,1.3197681141042703
0.2999916522065803,0.5542523704793112,-0.1627547415707229,0.0993206421343936,-0.6912829993403597,1.5138298071218064
0.3098169068089997,0.5640259752058304,-0.1445762712847878,0.109884701789153,-0.6133148985276637,1.6747840356077777
0.3098169068089997,0.5708696688189224,-0.1194819102634807,0.1181067814303151,-0.5056842981985878,1.8000558088126213
0.2901970058739504,0.5737995799323498,-0.1987050423213557,0.1239108263668198,-0.8454751084168192,1.8884863559112592
0.2549056708066933,0.5757600883563961,-0.1874624377458831,0.127297870035837,-0.7972551804938446,1.940091422373502
0.6509766818824151,0.5767367253942053,0.2489184251172021,0.1283303892080482,1.074397745922353,1.9558229055524479
1.503906727835743,0.5767367253942053,0.9248892628611332,0.1271205035227626,3.9736605328708934,1.937389062560693
1.503906727835743,0.5767367253942053,1.2229353444237607,0.1238239854152329,5.251990698643068,1.8871632454006744
1.462738604968908,0.5737995799323498,0.8379030114787037,0.1186398586450567,3.6005734298074845,1.808177784135198
0.5058934830803345,0.5698930317811133,0.1674466109526984,0.1118132488460657,0.724962258763346,1.7041674179237254
0.3294061994742595,0.5620727011302122,-0.1641241740705639,0.1036377578744553,-0.6971565436773878,1.5796054706389298
0.3588207467419387,0.5513224593658839,-0.1132871541551681,0.094453421628799,-0.4791147705559523,1.43967273617076
0.3646975345415166,0.539588346215318,-0.0615753071759685,0.0846373655520844,-0.25732083327375666,1.290115105464763
0.3705743223410945,0.5268848303753715,-0.0958144110167521,0.0745862651330416,-0.4041735583933204,1.136976334362386
0.3588207467419387,0.5151507172248058,-0.1041548766329052,0.064692020627414,-0.43994610986527716,0.98622742315784
0.3352829872738374,0.5044004754604773,-0.1101387399497106,0.0553139733252659,-0.4656111108799694,0.8433433030798027
0.3352829872738374,0.4965801448095762,-0.1245682212074544,0.0467520124095476,-0.5274996653998254,0.7128930918396933
0.3490261004093087,0.4897364511964843,-0.1091349241621742,0.0392248495459556,-0.4613057095294186,0.5982090848394226
0.3705743223410945,0.4848460316590105,-0.0856295142193123,0.0328567043801262,-0.36049017647069,0.5011838951349176
0.3803995769435139,0.479962846469965,-0.0728175486276259,0.0276740246225003,-0.3055392037458685,0.42222048058218736
0.3999888696087737,0.4770257010081094,-0.0630227801581176,0.0236121213387393,-0.26352909599447494,0.36033323925750976
0.3941120818091958,0.4750724269324912,-0.0597873207531781,0.020530114080836,-0.2496520963849485,0.31337571378002915
0.4039067281418257,0.473119152856873,-0.0542311109621064,0.0182315735198693,-0.2258213164396225,0.2783551028856719
0.419608770543823,0.4701892417434457,-0.0396856929641265,0.0164878098333862,-0.16343550514796773,0.2517870837725563
0.4254855583434009,0.4692053703572084,-0.0326506410904419,0.0150608744630515,-0.1332619193026078,0.230046267349952
0.4294034168764529,0.4672520962815901,-0.0286286349027097,0.0137239071254143,-0.11601139277414527,0.20967620570954942
0.4549001056110801,0.4652988222059719,-0.0045151378794613,0.0122772671862929,-0.01258775276028114,0.1876351700747899
0.4941092992113892,0.4633455481303537,0.034053249758131,0.0105597328435047,0.15283342340092587,0.16146678177748522
0.5294006342786464,0.4604084026684982,0.0708597611106565,0.0084547896068175,0.31069784997579,0.129395823666688
0.5745172239483228,0.4584551285928799,0.1141066125587734,0.0058925731678901,0.49618512258460395,0.0903578417147558
0.6353052477502072,0.4555252174794526,0.173888570139593,0.0028483293063354,0.7525920491370542,0.04397568011469899
0.6960932715520916,0.4525880720175971,0.2387276907293806,-0.0006616934282713,1.0306893263684904,-0.009503097900560866
0.7607991538870279,0.4486815238663607,0.2942263016680557,-0.0045861236301104,1.268724827957376,-0.06929579654359434
0.7901830928849176,0.444767741366696,0.3360389224630699,-0.0088455096880592,1.4480606346622469,-0.13419188944592714
0.8255050362219641,0.4398845561776505,0.3573370904906381,-0.0133400714842537,1.539409229223803,-0.2026711246955205
0.8117619230864929,0.4359707736779858,0.3536566916534713,-0.0179577993410549,1.5236238686817132,-0.2730269205580291
0.796090488954285,0.4320642255267494,0.3330927133422856,-0.0225825770513522,1.4354242397328933,-0.34349012813227414
0.7607991538870279,0.4271738059892756,0.2976260392596538,-0.0271020068268461,1.28330642250901,-0.4123482524219665
0.7058879178847215,0.4222906208002301,0.2420777236434003,-0.0314145675120855,1.0450577358032616,-0.4780545150308601
0.6353052477502072,0.4174002012627563,0.1756631015376006,-0.0354356350002451,0.7602030769495649,-0.5393195813403983
0.5803940117479008,0.414470290149329,0.110827975195181,-0.039101789493479,0.48212293118609956,-0.595177186016361
0.5058934830803345,0.4105565076496644,0.0484520097448163,-0.042372844301795,0.2145902133046559,-0.6450150438299176
0.4607768934106581,0.407626596536237,-0.0094353108242348,-0.0452312465438004,-0.03369054821776299,-0.6885657187219584
0.4039067281418257,0.4066499594984279,-0.0561022828646682,-0.0476789186872574,-0.23384683878787535,-0.7258585014505406
0.3803995769435139,0.4056660881121906,-0.0882270705183285,-0.049732149750804,-0.3716311871389554,-0.7571415718360515
0.3549028882088867,0.4046894510743815,-0.1079978984660974,-0.0514156761822243,-0.45642896617841544,-0.7827918149017383
0.3451082418762568,0.4046894510743815,-0.1217031502318213,-0.0527574418465307,-0.5152112748394533,-0.8032349839451948
0.3352829872738374,0.4037128140365724,-0.1316135364791059,-0.0537855205613399,-0.5577172713213951,-0.8188988122245451
0.3294061994742595,0.4017595399609542,-0.1347637900543032,-0.0545282347663698,-0.5712288201191275,-0.8302148210093214
0.3352829872738374,0.3998062658853359,-0.1338904318814898,-0.0550176646944613,-0.5674829560836815,-0.8376717853817652
0.3352829872738374,0.3998062658853359,-0.1310150140514809,-0.0552957194063704,-0.5551501874996154,-0.841908232646814
0.3451082418762568,0.3988296288475269,-0.1217946846648237,-0.0554210410042472,-0.5156038692540497,-0.8438176350695655
0.3549028882088867,0.3988296288475269,-0.1130405920109758,-0.0554745142692168,-0.47805725681510397,-0.844632354825898
0.3588207467419387,0.3988296288475269,-0.1123149854965311,-0.0555611776743216,-0.4749451048584927,-0.8459527602346584
0.3549028882088867,0.3988296288475269,-0.1076636739701707,-0.0558068373057464,-0.4549954655162256,-0.8496956353923457
0.3803995769435139,0.3988296288475269,-0.0949392519874877,-0.0563485494429659,-0.4004199704209803,-0.857949172570013
0.3803995769435139,0.3998062658853359,-0.0856332889300003,-0.0573192082535576,-0.3605063663380898,-0.8727381500169087
0.3901942232761438,0.3978529918097178,-0.0782049672887549,-0.0588275762209786,-0.32864603257602043,-0.8957196751505558
0.4039067281418257,0.3958924833856713,-0.0704499015760178,-0.0609360349335477,-0.2953842819562451,-0.9278441951236316
0.3941120818091958,0.3939392093100531,-0.0711595722619382,-0.0636389568957212,-0.2984280845817316,-0.9690259692991896
0.3999888696087737,0.3919859352344348,-0.0752768107300534,-0.0668448488139934,-0.31608706572275136,-1.017871003990227
0.3941120818091958,0.3890487897725793,-0.072792685763845,-0.0703653204595311,-0.30543256604537605,-1.0715089818256678
0.4039067281418257,0.386118878659152,-0.0713336600963444,-0.0739135071990691,-0.2991747534493397,-1.1255692273988929
0.3901942232761438,0.3831889675457247,-0.0787166696476589,-0.0771137886316043,-0.33084074205803826,-1.1743287806147455
0.3803995769435139,0.3812284591216783,-0.0925896060694317,-0.079523493877806,-0.3903422561286577,-1.2110430989219365
0.3646975345415166,0.37927518504606,-0.1085973865309754,-0.0806658467897865,-0.4590001916524632,-1.2284480112014395
0.3588207467419387,0.3802518220838691,-0.112568530619046,-0.0800718391865582,-0.47603256883988737,-1.2193976992364426
0.3803995769435139,0.3822123305079156,-0.0936632345023538,-0.0773272216490387,-0.3949470863798705,-1.1775806504240105
0.3999888696087737,0.3851422416213429,-0.072006947022831,-0.0721195730106033,-0.30206250484615516,-1.0982368094937145
0.4098141242111931,0.3910092981966258,-0.0675409173620592,-0.0642796541371671,-0.2829075459664215,-0.9787876455448888
0.3999888696087737,0.400782902923145,-0.0683064529774001,-0.0538111844325684,-0.2861909552463976,-0.819289827490318
0.4098141242111931,0.4134864187630917,-0.0700088052710374,-0.0409040186025847,-0.29349240433211804,-0.6226359855016877
0.3843174354765659,0.4301109514511312,-0.0885187182538726,-0.0259275601638815,-0.37288207457277267,-0.3944543590975165
0.3549028882088867,0.4496581609041697,-0.1174289930885252,-0.0094039903745832,-0.49687926396086723,-0.14270091258300194
0.3490261004093087,0.4711658787812548,-0.1321528795275134,0.0080359171633091,-0.5600305326964955,0.12301387456925426
0.3451082418762568,0.4916897252721025,-0.1240790224605915,0.0257086343031716,-0.5254014747042991,0.3922757535681905
0.374522789143936,0.5102675320357603,-0.1074024941768234,0.0429375214868431,-0.4538752561621032,0.6547754302971406
0.3646975345415166,0.5268848303753715,-0.1053553749948121,0.0591078044757902,-0.44509508972080736,0.9011461919118036
0.3705743223410945,0.5405649832531272,-0.1133236109549666,0.0737094449628554,-0.47927113505732605,1.1236170843557207
0.3588207467419387,0.5513224593658839,-0.1126033788979271,0.0863629163799738,-0.4761820343382607,1.3164056330926661
0.3451082418762568,0.5591427900167849,-0.1287157104666238,0.0968261958809333,-0.5452883932516234,1.475824373098671
0.3392008458068894,0.5650026122436396,-0.1532011167280304,0.1049847122641134,-0.6503071651174964,1.6001276952077337
0.3392008458068894,0.5689163947433042,-0.1237206994572734,0.110828841774824,-0.5238646146931556,1.6891689716969986
0.3392008458068894,0.5728229428945406,-0.130296975096137,0.1144252590517852,-0.5520704930711459,1.7439640587226684
0.274494963471953,0.5747834513185871,-0.2477681445983928,0.1158887316381487,-1.0559084861625456,1.7662615569143207
0.2647003171393232,0.5757600883563961,-0.1518388663612506,0.1153598334397809,-0.6444644252027194,1.7582032531704985
0.9411736877563656,0.5757600883563961,0.4179548355421158,0.1129919019776413,1.799400877743793,1.722125401089776
1.503906727835743,0.5747834513185871,1.0272031579731071,0.1089479293846512,4.412488441003629,1.6605113521356045
1.503906727835743,0.5708696688189224,1.064362047788686,0.1034055582669265,4.57186423124658,1.5760676726800074
1.1058767874934952,0.5650026122436396,0.562037161382041,0.096566482820572,2.4173750598237205,1.4718673796109116
0.4803967943457073,0.5581589186305476,0.0638256569559803,0.0886656970093119,0.2805283289307145,1.3514908457552592
0.419608770543823,0.5483853139040282,-0.0998068502221053,0.079976292332314,-0.4212972710905533,1.2190988987674853
0.3843174354765659,0.5376350721396999,-0.086905754359023,0.0708067232871826,-0.36596401548514007,1.0793911576678745
0.3549028882088867,0.5288381044509897,-0.1163358253325546,0.0614892670687845,-0.4921906288633008,0.9374302045783647
0.3294061994742595,0.5200411367622795,-0.1612580701629347,0.0523603583974308,-0.6848637228352186,0.7983419657634077
0.3196115531416296,0.5092836606495229,-0.1597982440984084,0.0437351861594806,-0.6786024773080825,0.6669286655277881
0.3294061994742595,0.5004866929608127,-0.1456952566929662,0.0358801642228304,-0.6181142664469926,0.5472493909996182
0.3490261004093087,0.4936429993477207,-0.1401866833617694,0.0289875332765375,-0.5944878009597846,0.4422331252405272
0.3451082418762568,0.487783177120866,-0.131190761708293,0.0231563272198497,-0.5559039754041194,0.35338875076048887
0.3646975345415166,0.4828927575833923,-0.1177410254471915,0.0183831801278617,-0.498217581762896,0.2806649842589561
0.374522789143936,0.4809394835077741,-0.1096799296621529,0.0145650242885923,-0.46364325735920986,0.22249148397282875
0.3705743223410945,0.479962846469965,-0.1084713106371501,0.0115138634727581,-0.4584594476929768,0.1760039355162117
0.3803995769435139,0.4789862094321558,-0.1034607151731987,0.0089818234943914,-0.4369688268585459,0.13742572273320847
0.3901942232761438,0.4789862094321558,-0.0917009678624715,0.006692957616132,-0.38653085548732363,0.10255251550201575
0.4039067281418257,0.4770257010081094,-0.0786929161545815,0.0043771815804154,-0.33073886248765744,0.06726930456263605
0.419608770543823,0.4740957898946821,-0.0627179518567064,0.0018014788851983,-0.2622216766483388,0.02802584573465321
0.4392286714788723,0.4711658787812548,-0.0430090148129496,-0.0012058135310453,-0.17768934988112736,-0.017793322890557028
0.46469475194371,0.466275459243781,-0.0205664457661049,-0.0047404469784434,-0.08143237894699304,-0.0716470702281498
0.4901914406783372,0.4613850397063073,0.0112702991744151,-0.0088184899619641,0.055116544038628125,-0.1337802163477371
0.5392258888810657,0.4565018545172618,0.0527074827457582,-0.0133826754374921,0.23284208723707667,-0.20332023939650098
0.5803940117479008,0.451611434979788,0.0973035009057016,-0.0183168100042232,0.4241159835026794,-0.27849681434857176
0.6254799931477878,0.4467282497907424,0.1465677694129836,-0.0234653415161818,0.6354121703117175,-0.35693994553343456
0.6862680169496722,0.4418378302532686,0.195519478556885,-0.0286549206213039,0.8453677789769023,-0.43600847868541526
0.7058879178847215,0.4369474107157949,0.2301856860969419,-0.0337150306390645,0.994052366940733,-0.5131044181802156
0.7411792529519786,0.4330408625645585,0.2517890855939718,-0.038495351883804,1.0867101100504264,-0.5859374902194767
0.7509738992846084,0.4301109514511312,0.2707142769496558,-0.0428783255559409,1.1678809238928427,-0.6527165665336937
0.7666759416866058,0.4261971689514665,0.2818174039721873,-0.046786252880768,1.2155026276672634,-0.7122578270057899
0.7509738992846084,0.4232672578380392,0.267802977850097,-0.0501830659751483,1.1553942592769573,-0.7640117406322345
0.7098057764177734,0.4213067494139927,0.2251802969294398,-0.0530715140071225,0.9725840760955715,-0.8080201937933993
0.654894540415467,0.4193534753383746,0.1728013009071944,-0.0554868641180604,0.7479287130153243,-0.8448205173749087
0.60980855901558,0.4164235642249472,0.124446340262181,-0.0574883317325371,0.5405325797289409,-0.8753149187940279
0.5548973230132735,0.414470290149329,0.0720253654028051,-0.0591493701584881,0.315697167934258,-0.9006225341494605
0.4941092992113892,0.4134864187630917,0.0103888544246168,-0.0605477387345558,0.05133599638901271,-0.921928106311636
0.4392286714788723,0.4125097817252826,-0.0452874828337761,-0.0617560543411198,-0.18746177965943236,-0.940338027551947
0.4039067281418257,0.4115331446874735,-0.0784667972024948,-0.0628334245646797,-0.32976903031945803,-0.9567528622645395
0.3941120818091958,0.4115331446874735,-0.0915723213061977,-0.0638187820593367,-0.3859790858658433,-0.9717657891618176
0.3803995769435139,0.4115331446874735,-0.1004969581179595,-0.0647266198055668,-0.4242571682188188,-0.9855976235900791
0.374522789143936,0.4115331446874735,-0.112866975860379,-0.0655458668279586,-0.4773126110160063,-0.9980796879420247
0.3588207467419387,0.4115331446874735,-0.1202996464253447,-0.0662425442979303,-0.5091915974654425,-1.0086942800919598
0.3705743223410945,0.4115331446874735,-0.1175730427322092,-0.0667665180020984,-0.4974970979680266,-1.0166775541416588
0.3646975345415166,0.4105565076496644,-0.1144316714758438,-0.0670620800165779,-0.48402364574933765,-1.0211807430259505
0.3705743223410945,0.4095798706118552,-0.1167772130975904,-0.0670813007346682,-0.4940837565698949,-1.021473590279021
0.3646975345415166,0.4095798706118552,-0.115231553671123,-0.0667982392736383,-0.48745436872320985,-1.0171608600821924
0.3803995769435139,0.4095798706118552,-0.1053199133636257,-0.0662214062229501,-0.44494299353274347,-1.008372219950186
0.3843174354765659,0.4095798706118552,-0.0971674999744643,-0.0654015607333492,-0.4099770047011803,-0.9958810373396292
0.3901942232761438,0.4095798706118552,-0.0940186779782728,-0.0644321362900003,-0.3964715959963431,-0.9811108667372351
0.3941120818091958,0.4105565076496644,-0.0879807995699806,-0.0634403661588354,-0.37057492234736383,-0.9660002367792568
0.3999888696087737,0.4105565076496644,-0.0824356299846693,-0.0625684942722621,-0.3467914942342976,-0.9527163789226998
0.3999888696087737,0.414470290149329,-0.0848582674698106,-0.0619462297701428,-0.3571822719346775,-0.9432355442695467
0.3941120818091958,0.4193534753383746,-0.084910373557985,-0.0616576491077117,-0.3574057567863639,-0.9388387234075364
0.4098141242111931,0.4213067494139927,-0.075573076100831,-0.0617077024835502,-0.31735775835710195,-0.939601337663276
0.4098141242111931,0.4222906208002301,-0.0710943489997695,-0.0619947840978121,-0.2981483397077068,-0.9439753189967887
0.4039067281418257,0.4222906208002301,-0.0776615709005946,-0.0622959135600532,-0.3263153862836249,-0.9485633336287937
0.3999888696087737,0.4222906208002301,-0.0832803105239258,-0.0622696908441993,-0.3504143588870087,-0.9481638037949037
0.3941120818091958,0.4222906208002301,-0.0857613753745533,-0.0614795313477422,-0.361055733620626,-0.9361249175817027
0.3901942232761438,0.4222906208002301,-0.0930975470164234,-0.0594362785712294,-0.3925208327821942,-0.9049938765810707
0.3803995769435139,0.4232672578380392,-0.0994814162698257,-0.0556557350854775,-0.4199014733803994,-0.8473934388807101
0.3901942232761438,0.4252205319136574,-0.0914973279996601,-0.049723540277138,-0.3856574369266074,-0.7570103977195785
0.4098141242111931,0.4301109514511312,-0.0710127862210015,-0.0413577323989053,-0.29779851407015206,-0.629548778161593
0.4294034168764529,0.4408611932154596,-0.0512018218685488,-0.0304587897147959,-0.21282858857406378,-0.4634922650063195
0.4392286714788723,0.4555252174794526,-0.0410025796726619,-0.0171382984940653,-0.16908367873105676,-0.26054098892933125
0.4352802046760309,0.4740957898946821,-0.0448433401473532,-0.0017206164136609,-0.1855568359977517,-0.025636870115928606
0.419608770543823,0.4956035077717671,-0.0612410270265012,0.0152835415744432,-0.2558870939115665,0.23343882800319524
0.3999888696087737,0.5180806283382331,-0.0775427161373317,0.0332277200915281,-0.3258056140080489,0.5068366980853404
0.4039067281418257,0.539588346215318,-0.0784105251643542,0.0513964257786828,-0.3295276775612957,0.7836554687127074
0.4156909120107711,0.5581589186305476,-0.0605442714709844,0.0690771993614658,-0.2528986847363252,1.053040095840392
0.4392286714788723,0.5728229428945406,-0.0422657802586253,0.0856269299216732,-0.17450159063914802,1.3051921283943537
0.4294034168764529,0.5855336930829155,-0.0456804987844213,0.1005230584920071,-0.18914743894643027,1.5321498472847186
0.4294034168764529,0.5962839348472438,-0.054475364787287,0.1133937220016626,-0.22686892971873884,1.7282475391759071
0.4254855583434009,0.605080902535954,-0.0470102552406463,0.1240250060477524,-0.19485081133170198,1.8902259998600703
0.419608770543823,0.6129012331868552,-0.0566643331324911,0.1323473697642858,-0.23625749222868353,2.017025703283818
0.4156909120107711,0.6177916527243289,-0.0742751760030084,0.1384063126945033,-0.3117910190176463,2.109339881416495
0.4254855583434009,0.6197449267999471,-0.0373281302620687,0.1423241698166054,-0.1533238354895744,2.1690324324825156
0.4294034168764529,0.6207215638377562,-0.0408504974052756,0.144260511587705,-0.1684313925172617,2.1985345752228858
0.3646975345415166,0.6216982008755654,-0.1530769224280326,0.1443780639919901,-0.6497744913803623,2.2003256060535246
0.3549028882088867,0.6216982008755654,-0.0595435909369156,0.142819459492614,-0.24860673059858104,2.1765786760938073
0.99216706522562,0.6207215638377562,0.4702666259031209,0.1396977049602822,2.0237679933704125,2.1290155603319914
1.503906727835743,0.6177916527243289,1.031019246312209,0.1351004288083609,4.428855778609778,2.0589713670624015
1.503906727835743,0.6129012331868552,1.0729142914550296,0.1291053075251333,4.608545106252225,1.9676295768457026
1.1470449103603302,0.6070414109600005,0.601856571671635,0.1218020821173061,2.5881619163043386,1.8563574854914684
0.5098113416133866,0.5992210803090994,0.1013035953768712,0.1133155637655726,0.44127252990525345,1.7270567186958257
0.4352802046760309,0.5894402412341518,-0.0744381599444456,0.1038240716462807,-0.3124900628963085,1.5824441510686602
0.4254855583434009,0.5796666365076326,-0.0458826677378907,0.0935687490818269,-0.19001454872505094,1.4261938471911373
0.4039067281418257,0.5679397577054951,-0.0550685736787462,0.0828509564448194,-0.22941322359631905,1.262897339850328
0.3843174354765659,0.5552290075171202,-0.0990126898121454,0.0720171498376851,-0.41789108905591243,1.0978332412931116
0.3646975345415166,0.5425254916771737,-0.1088782630993539,0.0614329809072306,-0.46020488117005165,0.9365726274722697
0.3588207467419387,0.5307913785266078,-0.1045054801802636,0.0514504153694787,-0.44144986085728877,0.7844780552198662
0.3803995769435139,0.5210177738000886,-0.0998255307949428,0.0423730740148821,-0.4213773927269355,0.6461754970953805
0.374522789143936,0.5131974431491875,-0.0922693725795721,0.034425437379154,-0.3889687633854156,0.5250851431220253
0.3843174354765659,0.5073303865739046,-0.0873676648723321,0.0277309178572084,-0.36794516598359495,0.4230873070672487
0.3901942232761438,0.5024472013848591,-0.080298252242831,0.0223022488563228,-0.337624205643497,0.3403759953841881
0.3999888696087737,0.4995100559230035,-0.0707673222011537,0.0180455286841743,-0.2967457102233845,0.2755205199723127
0.4039067281418257,0.4985334188851945,-0.0637291381881369,0.0147770166894796,-0.26655869052185455,0.22572140451898276
0.419608770543823,0.4965801448095762,-0.0523840981529316,0.0122498062125827,-0.21789941329579732,0.18721677411893145
0.4294034168764529,0.494626870733958,-0.0359999247441968,0.0101861137650381,-0.14762711513365206,0.15577431387333643
0.4451054592784502,0.4936429993477207,-0.0261837938141249,0.0083103388023027,-0.1055253830347402,0.1271949682612206
0.4490233178115022,0.4916897252721025,-0.0174853051822768,0.0063783109129363,-0.06821725820914593,0.09775855191097318
0.4745200065461294,0.487783177120866,0.0076742730873722,0.0041991280258805,0.03969306120043929,0.06455647697211424
0.5098113416133866,0.4838693946212014,0.0415038798215727,0.0016474737248182,0.18478943877335158,0.025679419968241555
0.5353080303480138,0.479962846469965,0.0689123057734382,-0.0013340020051724,0.30234514528325374,-0.019746405098363926
0.5705993654152709,0.4760490639703003,0.1055475903291648,-0.004741081280144,0.459475174081811,-0.07165673446180466
0.6293978516808398,0.4721425158190639,0.1626597837090771,-0.0085208564583356,0.7044313877256223,-0.1292454662124973
0.6803912291500942,0.4682287333193992,0.2150484633691893,-0.0125882341615176,0.9291282842705427,-0.19121611590319246
0.7098057764177734,0.4643221851681628,0.2456450419453749,-0.0168432146799945,1.0603580899378187,-0.2560450859162254
0.7313846066193487,0.459431765630689,0.2665686694002543,-0.0211865076468976,1.1501002667606697,-0.3222195861957162
0.7450971114850305,0.4555252174794526,0.2813970951673785,-0.0255316904637602,1.2136999083652353,-0.38842288026775706
0.7450971114850305,0.451611434979788,0.2806710035193201,-0.0298128585731149,1.2105856756534283,-0.45365084494982744
0.7254772105499813,0.4477048868285516,0.2641788257360097,-0.0339874674649742,1.1398501429158392,-0.5172552712195304
0.6960932715520916,0.4437911043288869,0.2316884044094891,-0.0380347535220241,1.00049757883386,-0.5789198041797367
0.6411820355497851,0.4408611932154596,0.1798209171752274,-0.0419506641575799,0.7780360950031199,-0.6385826985370147
0.5803940117479008,0.4359707736779858,0.1185765962329276,-0.0457405531271455,0.5153570403673237,-0.6963255242194788
0.5196059879460164,0.4310875884889403,0.0587810496215556,-0.0494109686714967,0.2588918299830992,-0.7522480503572223
0.4607768934106581,0.4271738059892756,-0.0018519829720121,-0.0529617144492715,-0.0011653873446124815,-0.806347285489247
0.3999888696087737,0.4242438948758483,-0.0576524676683744,-0.0563791181198983,-0.2404956361372975,-0.8584149175555853
0.3705743223410945,0.4213067494139927,-0.0923382854988988,-0.0596312555355597,-0.38926433332924737,-0.9079645495885997
0.3490261004093087,0.4183768383005654,-0.1082390359641655,-0.0626658166556541,-0.45746321342053026,-0.9541991847421668
0.3352829872738374,0.4174002012627563,-0.1249553376141675,-0.0654112833563654,-0.5291600213346264,-0.9960291714223184
0.3137347653420516,0.414470290149329,-0.1452548111773965,-0.0677819657091167,-0.6162251800816229,-1.0321489361285394
0.3039095107396323,0.4125097817252826,-0.1531566329545884,-0.0696870839440287,-0.6501163726427885,-1.061175356434361
0.3098169068089997,0.4095798706118552,-0.1488161496036064,-0.0710434416387944,-0.6314998863179171,-1.081840849951682
0.3098169068089997,0.407626596536237,-0.1479220152605986,-0.0717903876355574,-0.6276649125550441,-1.0932213344016641
0.3098169068089997,0.4066499594984279,-0.1463871338717589,-0.0719049204497591,-0.6210817520922424,-1.0949663586961698
0.3235294116746816,0.4066499594984279,-0.1329449372145924,-0.0714142239281357,-0.5634276960784677,-1.087490096478826
0.3352829872738374,0.4066499594984279,-0.1220917144341926,-0.0704028508308002,-0.516877840420944,-1.0720807953282248
0.3294061994742595,0.4086032335740461,-0.1245610712164924,-0.0690122634314648,-0.5274689988361726,-1.0508937773335372
0.3352829872738374,0.4105565076496644,-0.1223545907994559,-0.0674314291024012,-0.5180053264319083,-1.0268081532350462
0.3392008458068894,0.4125097817252826,-0.1117817620544094,-0.0658784907072971,-0.4726580906907932,-1.003147552155648
0.3490261004093087,0.414470290149329,-0.1110841920230922,-0.0645749621165686,-0.46966618820009043,-0.9832869639455479
0.3352829872738374,0.4154469271871381,-0.1140368759676489,-0.0637151923907487,-0.4823303538771852,-0.9701874948572045
0.3451082418762568,0.4164235642249472,-0.109281709963981,-0.0634347911227991,-0.46193527901536147,-0.9659152954164352
0.3451082418762568,0.4164235642249472,-0.1119325130100332,-0.0637821852879287,-0.4733046668614394,-0.9712082000057966
0.3294061994742595,0.4154469271871381,-0.1194653263736475,-0.0646974330462572,-0.5056131693096305,-0.9851529335296091
0.3352829872738374,0.414470290149329,-0.1168911779020225,-0.0660018537254617,-0.4945725556394148,-1.0050271136179352
0.3352829872738374,0.4134864187630917,-0.1223151836294063,-0.0674009923769348,-0.5178363076883704,-1.0263444186647024
0.3098169068089997,0.4115331446874735,-0.1359312562579368,-0.0685020110626907,-0.576236123881686,-1.0431195618299192
0.3294061994742595,0.4105565076496644,-0.1239944461810074,-0.0688449086245252,-0.5250387240553582,-1.048343956079712
0.3549028882088867,0.4105565076496644,-0.0990855990845341,-0.0679451711031196,-0.4182037994991108,-1.0346355368421818
0.3490261004093087,0.4115331446874735,-0.0965896813297733,-0.0653437514653854,-0.4074987201353123,-0.99500025415319
0.3549028882088867,0.414470290149329,-0.1008500846737296,-0.0606589152184281,-0.4257717404829782,-0.9236219934887486
0.3490261004093087,0.4203301123761837,-0.09513653843094,-0.0536337099108916,-0.4012661389417699,-0.8165858220562388
0.3549028882088867,0.4281504430270847,-0.1015644657946586,-0.0441728195900175,-0.42883574633050947,-0.6724395040542731
0.3196115531416296,0.4389079191398414,-0.1240815358700669,-0.0323634694929738,-0.5254122548062703,-0.49251200497639225
0.3098169068089997,0.4535647090554062,-0.1407426532104574,-0.0184768552442407,-0.5968723752682655,-0.2809352668916018
0.3098169068089997,0.4721425158190639,-0.1428125691712218,-0.0029491424720606,-0.6057503178984304,-0.0443547182128531
0.3098169068089997,0.4916897252721025,-0.1321028072847536,0.0136559072150637,-0.5598157710795933,0.20864015768773947
0.3294061994742595,0.5102675320357603,-0.123085096152663,0.0306977137414331,-0.5211384896809158,0.46828946970418595
0.3196115531416296,0.5288381044509897,-0.1285377806750191,0.047515929621682,-0.5445252460939578,0.7245321500734143
0.3196115531416296,0.5444787657527919,-0.1255504038519697,0.0634857751420885,-0.5317122814362418,0.9678490423269649
0.3294061994742595,0.5581589186305476,-0.1186945914356938,0.078064314901368,-0.502307459951416,1.1899679716109108
0.2999916522065803,0.5689163947433042,-0.1447855733050589,0.0908223033354707,-0.6142126022816162,1.3843489437515601
0.3137347653420516,0.5767367253942053,-0.1471223347361831,0.1014590535495024,-0.6242350545546261,1.5464106870820369
0.3137347653420516,0.5835804190072973,-0.1028879879661097,0.1098008535847385,-0.43451237964829637,1.673506522654186
0.3235294116746816,0.5884636041963428,-0.1496083632651765,0.1157861472073963,-0.6348977186799879,1.7646985784338853
0.2588235293397452,0.5894402412341518,-0.1989098693191237,0.1194425283102728,-0.8463536186412737,1.8204072755349126
0.4941092992113892,0.590416878271961,0.12234050853778,0.120861317111714,0.531500593120601,1.8420239706676043
1.3568645997671365,0.590416878271961,0.7846613205499138,0.120175062900817,3.372217937817265,1.8315681875056442
1.503906727835743,0.5894402412341518,1.2005814177260306,0.11754188364409,5.156113917873635,1.7914490146135436
1.503906727835743,0.5865103301207246,0.945936074576826,0.1131383983049717,4.06393105133716,1.7243574221226061
0.6803912291500942,0.5826037819694881,0.2884763093417637,0.1071606010115949,1.2440629078773662,1.6332795805688134
0.2999916522065803,0.5767367253942053,-0.139032099584475,0.0998299203765882,-0.5895357503785845,1.5215891808129793
0.3294061994742595,0.5698930317811133,-0.1479692730005844,0.0914003721773976,-0.6278676026701879,1.393156412424099
0.3352829872738374,0.560119427054594,-0.0848448998975688,0.0821624262347106,-0.3571249379454157,1.2524068795179293
0.3137347653420516,0.5483853139040282,-0.1331433689749378,0.0724400245253243,-0.564278776903845,1.104276168663798
0.2843202180743724,0.5366584351018908,-0.1693711057736199,0.0625789264870244,-0.7196608189847398,0.9540322777118935
0.2843202180743724,0.523947684913516,-0.1517455848913745,0.0529267976966034,-0.6440643376852958,0.8069722464852119
0.3098169068089997,0.5131974431491875,-0.1345659135669872,0.0438076173597216,-0.5703801208793761,0.6680322287727997
0.3196115531416296,0.5053771124982864,-0.1279633511313693,0.0354944926469985,-0.5420614975021014,0.5413732909996504
0.3137347653420516,0.4985334188851945,-0.126528572860743,0.0281854780387474,-0.5359076828472671,0.43001299526961423
0.3196115531416296,0.4926663623099116,-0.1243200423727937,0.0219864785402448,-0.5264352176164839,0.33556491240434067
0.3294061994742595,0.4868065400830569,-0.115099456379155,0.0169040465191194,-0.4868877987745154,0.2581288744107379
0.3392008458068894,0.4828927575833923,-0.1035220520098554,0.0128492675713001,-0.4372319027163468,0.196350179613858
0.3549028882088867,0.4809394835077741,-0.0878290623157567,0.0096522841719898,-0.3699241159072023,0.1476408752995246
0.374522789143936,0.479962846469965,-0.0685771241368159,0.0070854886576334,-0.28735187340466245,0.10853312646090867
0.3901942232761438,0.4789862094321558,-0.0547666988059064,0.0048921563772723,-0.2281184716095909,0.07511547107689642
0.4039067281418257,0.4780023380459186,-0.0360659899662403,0.0028164868776289,-0.14791047120330367,0.043490528221102366
0.4451054592784502,0.4740957898946821,-5.286368447764318e-05,0.0006309054398614,0.006551098794107565,0.01019096483302154
0.4803967943457073,0.4701892417434457,0.0376468819478122,-0.0018428469224698,0.16824663872881834,-0.027499176642560227
0.5098113416133866,0.466275459243781,0.0678092027334177,-0.0047209807703459,0.29761389740165095,-0.07135048268431965
0.5509794644802216,0.4623689110925446,0.1074770645746289,-0.0080538188718867,0.4677507572370251,-0.12212967201429188
0.605890700482528,0.4574784915550708,0.1626240534965478,-0.0118299197092026,0.7042781395826969,-0.17966242143241823
0.6607713282150449,0.4525880720175971,0.218695252669301,-0.0159862055870069,0.9447694923216823,-0.24298767788605247
0.7098057764177734,0.4486815238663607,0.2660838888183033,-0.0204216505780819,1.1480210257304253,-0.3105662082864189
0.7450971114850305,0.444767741366696,0.3025456222131271,-0.0250121114454362,1.3044066874729767,-0.3805065637412633
0.7666759416866058,0.4408611932154596,0.3237127911742869,-0.0296243192235106,1.3951934224140343,-0.45077825557163936
0.7705938002196577,0.4359707736779858,0.3269073677496786,-0.0341277026118955,1.4088950741243396,-0.5193918967798723
0.7548917578176605,0.4310875884889403,0.3129739384340032,-0.0384033650252083,1.3491341038961853,-0.5845359765646908
0.7254772105499813,0.4271738059892756,0.2808931155714259,-0.042350038662978,1.2115383220861535,-0.6446675766514958
0.6705965828174644,0.4242438948758483,0.2283210120060288,-0.0458871834606681,0.9860547139360343,-0.6985595869733878
0.6000139126829501,0.4213067494139927,0.156738103510075,-0.0489556562888214,0.6790330922984451,-0.7453109016029935
0.5196059879460164,0.4183768383005654,0.0749161976213258,-0.0515165791779975,0.3280960493748268,-0.7843291750045168
0.4392286714788723,0.4164235642249472,-0.0023605270679814,-0.0535491447490402,-0.0033465509254069336,-0.8152973855245071
0.3803995769435139,0.414470290149329,-0.0649674831795423,-0.0550480678235079,-0.27186999590740707,-0.8381350080763711
0.3294061994742595,0.4134864187630917,-0.1135542350323434,-0.0560212398248023,-0.4802602898669396,-0.8529622765481011
0.2941148644070023,0.4125097817252826,-0.1495739710398555,-0.056487929443017,-0.634750209211434,-0.860072769095189
0.274494963471953,0.4125097817252826,-0.1704438999861567,-0.0564776618922955,-0.7242620712352694,-0.8599163324828613
0.2647003171393232,0.4134864187630917,-0.1783896638850756,-0.0560297413686461,-0.7583417331078153,-0.8530918062436005
0.2647003171393232,0.4134864187630917,-0.1803885649461866,-0.0551932730339989,-0.7669150903263207,-0.8403473576266874
0.2686181756723751,0.414470290149329,-0.1758868292006319,-0.054027481204113,-0.7476069867884177,-0.822585329515648
0.2843202180743724,0.4164235642249472,-0.1599017570589702,-0.0526020903729451,-0.6790464480502603,-0.8008680457233092
0.3039095107396323,0.4183768383005654,-0.1410655657113345,-0.0509975343880875,-0.5982573583843391,-0.776420997993041
0.3137347653420516,0.4203301123761837,-0.1319332833353984,-0.0493047875260308,-0.5590886768760883,-0.750630272258012
0.3196115531416296,0.4222906208002301,-0.125506448205388,-0.047624630169432,-0.5315237541162825,-0.7250313604850599
0.3294061994742595,0.4222906208002301,-0.1138506361786165,-0.0460661040078266,-0.4815315648471837,-0.701285624081216
0.3451082418762568,0.4232672578380392,-0.1058027914626564,-0.0447437543587122,-0.44701407474657906,-0.6811382778414573
0.3392008458068894,0.4232672578380392,-0.100305396554192,-0.0437730758605629,-0.4234355539091033,-0.6663490004345323
0.3646975345415166,0.4232672578380392,-0.086088995068256,-0.0432635248181192,-0.36246090605290704,-0.6585854703531967
0.374522789143936,0.4232672578380392,-0.0711273540225505,-0.0433086812014296,-0.2982898994155941,-0.6592734739308428
0.374522789143936,0.4242438948758483,-0.0687696098655726,-0.0439736867128225,-0.2881774514906425,-0.6694055114735257
0.3803995769435139,0.4232672578380392,-0.0728441794916101,-0.0452808732735679,-0.30565342446164867,-0.6893218325894535
0.3646975345415166,0.4222906208002301,-0.0751093946180651,-0.0471953300158902,-0.31536901210812607,-0.7184905345847538
0.3705743223410945,0.4203301123761837,-0.0830312723759964,-0.0496127799306399,-0.34934622547872135,-0.7553228508199916
0.3451082418762568,0.4174002012627563,-0.0992718136059716,-0.0523523430898891,-0.4190024801555058,-0.79706289102195
0.3392008458068894,0.4154469271871381,-0.109778688685769,-0.0551564756358521,-0.4640668382979988,-0.8397867117175798
0.3352829872738374,0.4125097817252826,-0.1123186560794359,-0.0576996408678278,-0.4749608481181543,-0.8785344290916084
0.3352829872738374,0.4095798706118552,-0.1155513474735591,-0.0596062069159189,-0.4888259756315702,-0.9075829083085728
0.3392008458068894,0.4086032335740461,-0.1066333792197255,-0.0604768204141838,-0.4505764949589695,-0.9208475933351825
0.3705743223410945,0.4095798706118552,-0.0808700590672421,-0.0599212501576356,-0.3400767052999486,-0.9123829135686137
0.3803995769435139,0.4105565076496644,-0.0678172211931219,-0.0575946120106173,-0.2840926228522307,-0.8769342072797728
0.3803995769435139,0.4134864187630917,-0.0727467639431125,-0.0532331166467802,-0.3052356057350718,-0.8104823749091301
0.3705743223410945,0.4193534753383746,-0.0725016838676714,-0.0466851116669239,-0.304184448639419,-0.7107168374076218
0.3803995769435139,0.4271738059892756,-0.0790984480440826,-0.0379333103079037,-0.3324782030782597,-0.5773742132991958
0.3392008458068894,0.4369474107157949,-0.1064043256018979,-0.0271048186254699,-0.4495940759058046,-0.4123910930431805
0.3235294116746816,0.4506347979419788,-0.1261297931379845,-0.0144669378034573,-0.5341973025381962,-0.219840082931432
0.3352829872738374,0.4672520962815901,-0.1226542849214489,-0.0004086395662391,-0.5192907251012674,-0.005647564094441345
0.3392008458068894,0.4858226686968196,-0.1081577957782429,0.0145901596632734,-0.457114771395078,0.22287444705442017
0.3549028882088867,0.5034238384226682,-0.0960398024813714,0.0299972972147728,-0.40514027034208955,0.4576179092102387
0.3588207467419387,0.5200411367622795,-0.0990296882379927,0.0452693903431435,-0.41796399590446864,0.6903038317793493
0.3490261004093087,0.5337212896400352,-0.1037740537874001,0.059889310645936,-0.4383127472366795,0.9130532358687328
0.3352829872738374,0.5435021287149827,-0.1083227767881202,0.0733953473455434,-0.4578223807707825,1.1188314866484075
0.3294061994742595,0.553275733441502,-0.1369084646023815,0.0853994941940701,-0.5804274049694914,1.3017269130071982
0.3294061994742595,0.5620727011302122,-0.1298973786912804,0.0955949011705614,-0.5503566099837248,1.4570643417637967
0.3392008458068894,0.5698930317811133,-0.0813638048176414,0.1037547638360638,-0.34219439825416587,1.5813881758577963
0.3549028882088867,0.5757600883563961,-0.1438916335004533,0.1097262015333877,-0.6103784629008182,1.6723691224763435
0.2686181756723751,0.5796666365076326,-0.180905621907338,0.1134228366016832,-0.7691327658864117,1.7286911298159773
0.5960654458801087,0.5826037819694881,0.2107135194674279,0.1148190275781513,0.9105355568389379,1.7499635240262137
1.503906727835743,0.5816199105832508,0.9014929059476772,0.1139473874381794,3.8733127321051963,1.7366831970656051
1.503906727835743,0.5806432735454417,1.2295923873974837,0.1108996990078589,5.2805429909716075,1.6902485539455374
1.503906727835743,0.5777133624320144,0.881208663914065,0.1058299428471805,3.786312901926447,1.6130056456203878
0.605890700482528,0.5708696688189224,0.2538552733801912,0.0989571430869023,1.0955720624083518,1.5082915282161218
0.4098141242111931,0.5620727011302122,-0.0819389014310034,0.0905653224522093,-0.3446610079315677,1.380433577769852
0.3941120818091958,0.5522990964036929,-0.0780293818719327,0.0809981428112167,-0.3278929405245608,1.2346678335174615
0.374522789143936,0.5425254916771737,-0.0628473173397528,0.0706467096066025,-0.2627765297721272,1.076953185965077
0.3490261004093087,0.5307913785266078,-0.115498032488329,0.0599302844386718,-0.4885973057777342,0.9136775134110282
0.3490261004093087,0.5190644997244704,-0.1211936297136933,0.0492709984739891,-0.5130259233495494,0.7512724149237344
0.3451082418762568,0.5083070236117138,-0.1019302164839374,0.0390648791116289,-0.4304044639489587,0.5957717720374242
0.3588207467419387,0.4975567818473854,-0.1079417454293636,0.0296524204825919,-0.45618812382148805,0.45236336028065827
0.3549028882088867,0.4897364511964843,-0.1088155035743425,0.0212923732286156,-0.45993570335167205,0.32498950971140333
0.3646975345415166,0.4828927575833923,-0.0896828224002245,0.0141422815927081,-0.3778749583529589,0.2160505676312151
0.3901942232761438,0.4770257010081094,-0.077577611884575,0.0082485632929201,-0.32595528309990346,0.12625375533958352
0.3803995769435139,0.4721425158190639,-0.0813235144963204,0.0035477526436712,-0.342021591643647,0.05463210835582964
0.3843174354765659,0.4692053703572084,-0.0756503425865678,-0.0001208805403029,-0.31768915704217343,-0.0012632617028348159
0.4039067281418257,0.4672520962815901,-0.060397532323979,-0.0029925776194941,-0.25226931535447256,-0.045016497005552714
0.4098141242111931,0.466275459243781,-0.0592344043891249,-0.0053468016681012,-0.2472806185798637,-0.08088550265395994
0.4039067281418257,0.466275459243781,-0.0504499650154479,-0.0074731176367456,-0.20960384798823778,-0.1132820961450211
0.4607768934106581,0.4643221851681628,-0.0121594172976366,-0.0096376085178533,-0.045374337051581455,-0.14626032338142766
0.4843146528787593,0.4623689110925446,0.0214130213269131,-0.0120542099747596,0.09861903742020754,-0.18307971249564847
0.4999860870109672,0.4584551285928799,0.0368046980191254,-0.0148646185444193,0.1646344821269788,-0.22589915481639913
0.5294006342786464,0.4545485804416435,0.0616880473532986,-0.0181290432182113,0.27136004588057105,-0.2756359957650436
0.5705993654152709,0.4496581609041697,0.1013372943314035,-0.0218283002092206,0.44141706591091995,-0.33199795077265176
0.60980855901558,0.444767741366696,0.149677481004089,-0.025875965532751,0.648749833108422,-0.3936682622446947
0.6803912291500942,0.4398845561776505,0.205755576961381,-0.0301378441347158,0.8892707663997721,-0.45860233159852193
0.7156825642173513,0.4349941366401767,0.2528307619386299,-0.0344551261589805,1.0911778966670673,-0.5243805286251556
0.7509738992846084,0.4310875884889403,0.2805987618575736,-0.0386673873713265,1.210275828615843,-0.5885586264181839
0.7666759416866058,0.4271738059892756,0.298588117651801,-0.0426320353953363,1.2874328106972772,-0.6489640846205553
0.7764705880192357,0.4252205319136574,0.3072719922249793,-0.0462377866757035,1.3246782553093153,-0.7039013847126027
0.7666759416866058,0.4232672578380392,0.2969696447290645,-0.0494110778774936,1.280491123194552,-0.7522497142220197
0.7353024651524006,0.4222906208002301,0.2659938488665573,-0.0521157027288619,1.1476348411986976,-0.7934574336521013
0.6901858754827241,0.4203301123761837,0.218569718803952,-0.0543471250690746,0.944231073141466,-0.8274554299653355
0.6293978516808398,0.4174002012627563,0.1600807242037545,-0.0561235988127309,0.6933697104585028,-0.8545218201770723
0.5705993654152709,0.4154469271871381,0.0978532074318111,-0.0574763203237233,0.4264736941995064,-0.8751319127242181
0.5098113416133866,0.414470290149329,0.0396025922033033,-0.058440456025297,0.17663474905725074,-0.8898215039489952
0.46469475194371,0.414470290149329,-0.0092727731111485,-0.0590482925034892,-0.032993418228251005,-0.899082512935155
0.419608770543823,0.414470290149329,-0.0501144040424531,-0.0593251983586364,-0.20816461512872111,-0.9033014561951342
0.3901942232761438,0.414470290149329,-0.0862809212657602,-0.0592886600578053,-0.36328408428959197,-0.9027447578980162
0.3588207467419387,0.414470290149329,-0.1113057875956147,-0.0589503081903612,-0.4706166194336497,-0.8975896219407218
0.3549028882088867,0.4154469271871381,-0.120383888260688,-0.0583205178989013,-0.5095529136712277,-0.8879941242075928
0.3490261004093087,0.4164235642249472,-0.1255535719481351,-0.057414848697182,-0.5317258695125389,-0.8741953297677525
0.3392008458068894,0.4183768383005654,-0.1336363922610962,-0.0562613329682293,-0.5663933711834277,-0.8566203405810559
0.3451082418762568,0.4193534753383746,-0.1319046366959879,-0.0549074569930151,-0.5589658104283416,-0.8359926585934672
0.3549028882088867,0.4203301123761837,-0.1184200769167539,-0.0534255863693225,-0.5011300574884697,-0.8134148475296106
0.3646975345415166,0.4213067494139927,-0.1123054204537479,-0.0519155509283892,-0.4749040800523199,-0.790407916735501
0.3588207467419387,0.4232672578380392,-0.1174559836564836,-0.0505031578761471,-0.4969950274596915,-0.768888667368128
0.3588207467419387,0.4232672578380392,-0.1158292683776459,-0.0493336270012686,-0.49001798820066744,-0.7510696710912768
0.374522789143936,0.4242438948758483,-0.1044858782423705,-0.0485593992271552,-0.4413657874536562,-0.739273520924831
0.3803995769435139,0.4242438948758483,-0.0956826431497216,-0.0483224584883316,-0.40360840135981263,-0.7356634869927463
0.3901942232761438,0.4242438948758483,-0.0871443693026785,-0.0487321829226398,-0.3669874434023253,-0.7419060568353177
0.4039067281418257,0.4242438948758483,-0.0743573650115338,-0.0498407341437592,-0.3121435305767383,-0.758795965863053
0.4098141242111931,0.4242438948758483,-0.0690372672604144,-0.0516189825006212,-0.2893254435062543,-0.7858893941178074
0.3999888696087737,0.4232672578380392,-0.0768634803220749,-0.0539367607196866,-0.3228923476172839,-0.821203110363549
0.3941120818091958,0.4222906208002301,-0.0869834862151215,-0.0565515963600094,-0.3662974101601219,-0.8610427995417679
0.3843174354765659,0.4203301123761837,-0.0930964668563756,-0.0591097659258734,-0.3925161999376162,-0.9000191232531196
0.3803995769435139,0.4193534753383746,-0.1000723949907503,-0.0611624083984815,-0.4224362019778248,-0.9312932258550797
0.3705743223410945,0.4174002012627563,-0.1095861505715811,-0.0621975568622783,-0.46324103552905493,-0.9470647689742809
0.3646975345415166,0.4154469271871381,-0.1143172344597885,-0.0616864806674111,-0.4835328213474953,-0.9392780016394965
0.374522789143936,0.4154469271871381,-0.1072105870770488,-0.05914001891304,-0.45305215983625474,-0.9004800583829777
0.3901942232761438,0.4174002012627563,-0.0905027063554437,-0.0541681191867653,-0.3813914695813378,-0.8247280926894082
0.4039067281418257,0.4222906208002301,-0.0751674922821828,-0.0465341537952142,-0.31561819504055444,-0.70841684019358
0.4156909120107711,0.4310875884889403,-0.0697721323932897,-0.036195292853441,-0.2924773060041723,-0.5508937438944093
0.4039067281418257,0.444767741366696,-0.0731429010781043,-0.023321569723592,-0.3069346518919198,-0.35474943556751337
0.3999888696087737,0.4633455481303537,-0.0843713453275113,-0.008289245757752,-0.35509384567649566,-0.12571664085180997
0.3803995769435139,0.4848460316590105,-0.103450825151932,0.0083517558474518,-0.4369264082081846,0.12782599920633067
0.3549028882088867,0.5073303865739046,-0.1221957809088193,0.0259320315111171,-0.5173241852044869,0.3956794379874269
0.3549028882088867,0.5268848303753715,-0.1337048595500377,0.043730299140877,-0.5666870298028052,0.6668542068126118
0.3490261004093087,0.5444787657527919,-0.1306128727129279,0.061043990171316,-0.5534253891017266,0.930645956681546
0.374522789143936,0.5591427900167849,-0.1089760383853108,0.0772523499281868,-0.46062424282329123,1.1775968567093462
0.3843174354765659,0.5698930317811133,-0.0982319323072742,0.0918635888016225,-0.4145423925543611,1.400213990363883
0.3705743223410945,0.5816199105832508,-0.1169455456700388,0.1045410466757532,-0.4948057409157874,1.5933679972493717
0.3490261004093087,0.5914007496581983,-0.1312991226168502,0.1151071959629026,-0.5563687391663971,1.7543540634170813
0.3392008458068894,0.5992210803090994,-0.1388839850255621,0.1235277520288537,-0.5889004818065042,1.8826498274804178
0.3549028882088867,0.605080902535954,-0.1479679187838271,0.1298806769490178,-0.6278617943867077,1.9794431212113592
0.3490261004093087,0.6080180479978096,-0.1164368775406691,0.1343163380367532,-0.4926240453513599,2.047024944064853
0.3588207467419387,0.6099713220734279,-0.121696774510175,0.1370156090905398,-0.5151839291442295,2.0881510929257225
0.2784434302747945,0.6109479591112369,-0.2434442729608532,0.1381523776947935,-1.0373632480630737,2.105470922578738
0.2647003171393232,0.611924596149046,-0.1675807405592817,0.1378658023616724,-0.7119818793750045,2.1011046549550185
0.9215537868213162,0.6099713220734279,0.3994473190015278,0.1362458517911992,1.7200214859285383,2.0764230550041463
1.503906727835743,0.6080180479978096,1.0237487340421765,0.1333333867105492,4.397672294812001,2.0320486775992292
1.503906727835743,0.6060575395737632,1.04299139262186,0.1291336440900122,4.480204736785726,1.9680613133264762
1.041170905158559,0.6021509914225267,0.5129170937789032,0.1236397918564608,2.206697355783296,1.8843568685802925
0.4706021480130775,0.597260571885053,0.0324384981562441,0.1168615473118962,0.14590769677469867,1.7810833963722745
0.4156909120107711,0.590416878271961,-0.1051612334839139,0.108852984209146,-0.4442624099267682,1.6590647655040136
0.3803995769435139,0.5806432735454417,-0.0913640814679419,0.0997338151729163,-0.3850859378480527,1.5201249199685674
0.374522789143936,0.5689163947433042,-0.1095679879828889,0.089699674381373,-0.46316313554495847,1.3672445460968763
0.3490261004093087,0.5571822815927384,-0.1399957075536509,0.0790190351025651,-0.5936686989767267,1.2045141080798032
0.3352829872738374,0.5444787657527919,-0.1548213926826734,0.0680169432526723,-0.6572565858877212,1.0368860121296368
0.3196115531416296,0.5307913785266078,-0.157017411406134,0.0570481925189301,-0.6666753877189082,0.8697659021055502
0.3490261004093087,0.5190644997244704,-0.1429662244166681,0.0464644264246069,-0.6064093506706557,0.7085114259042256
0.3549028882088867,0.5092836606495229,-0.1339616630614318,0.0365805939541147,-0.5677884691291342,0.5579211526794862
0.3451082418762568,0.5014633299986218,-0.131610515422656,0.0276460512590377,-0.5577043139036288,0.4217942778456047
0.3803995769435139,0.494626870733958,-0.1145725826569892,0.0198244623908646,-0.4846280187798716,0.3026243902310374
0.3843174354765659,0.4887598141586752,-0.0982968395745901,0.0131848290007741,-0.41482078211530654,0.20146280040129402
0.3901942232761438,0.4848460316590105,-0.0944969852427434,0.007703942289853,-0.39852307273938575,0.11795589862249957
0.4039067281418257,0.4809394835077741,-0.0846547040809145,0.003278735185741,-0.3563091813732838,0.05053335287683109
0.4156909120107711,0.4780023380459186,-0.0695525561374713,-0.0002542908453589,-0.29153553569124513,-0.003295903833238955
0.4254855583434009,0.4750724269324912,-0.0598947610720884,-0.0030960398927779,-0.2501129117057309,-0.04659285031271113
0.4392286714788723,0.4721425158190639,-0.0470113512674063,-0.0054616529277763,-0.19485551222916875,-0.08263537879019694
0.46469475194371,0.4692053703572084,-0.0226988488624566,-0.0075600657668578,-0.09057833110768125,-0.11460683962980461
0.4941092992113892,0.4672520962815901,0.0110385138975228,-0.0095782036310679,0.05412240880329868,-0.14535522931406
0.5392258888810657,0.4633455481303537,0.0509083789081585,-0.0116706262101333,0.2251256673636722,-0.17723542242981613
0.5803940117479008,0.4604084026684982,0.0950705899767117,-0.013954421157294,0.414538949699568,-0.21203136885130405
0.6254799931477878,0.4574784915550708,0.1421733384799119,-0.0165083760528035,0.6165643009027464,-0.2509434777591237
0.6764733706170423,0.4545485804416435,0.186840452341743,-0.0193750583162425,0.8081431291436441,-0.29462030722670124
0.7058879178847215,0.4525880720175971,0.224257940031439,-0.0225644486077558,0.96862805479799,-0.3432139227956832
0.7411792529519786,0.4496581609041697,0.2538666779026969,-0.0260581389324864,1.0956209768079936,-0.3964438598807671
0.7548917578176605,0.4467282497907424,0.269760126777584,-0.0298136341022747,1.1637885401203696,-0.4536626609279328
0.7509738992846084,0.4418378302532686,0.2666644679686063,-0.0337687465862563,1.1505111502023178,-0.513922835447838
0.7353024651524006,0.4369474107157949,0.2498359724061435,-0.0378462732618228,1.0783331386368846,-0.5760481150888985
0.7058879178847215,0.4330408625645585,0.221186390047481,-0.0419590614821144,0.9554540684815636,-0.6387106403449908
0.6607713282150449,0.4281504430270847,0.1763510183944349,-0.0460153351758287,0.7631535766341235,-0.7005121091208311
0.605890700482528,0.4242438948758483,0.1210305142724155,-0.0499239317278383,0.5258819814695965,-0.760063565951937
0.5509794644802216,0.4203301123761837,0.0676068129181177,-0.0535990045716935,0.2967458403388417,-0.8160570507999672
0.5058934830803345,0.4164235642249472,0.020422640517175,-0.0569637928506871,0.0943712591637299,-0.8673230336856337
0.4607768934106581,0.4134864187630917,-0.0215552270585154,-0.0599532226244244,-0.08567329681718466,-0.912870046725086
0.4294034168764529,0.4115331446874735,-0.0552306112990241,-0.0625153510678764,-0.230108208670121,-0.9519066879761592
0.4098141242111931,0.4095798706118552,-0.0738272212094448,-0.0646119543046112,-0.30986972509385996,-0.9838505776774831
0.4039067281418257,0.4086032335740461,-0.0780755632670071,-0.0662188207291342,-0.3280910141583812,-1.0083328273136434
0.4039067281418257,0.407626596536237,-0.0801698865272637,-0.0673264444737532,-0.3370736405577214,-1.0252086052904912
0.3999888696087737,0.407626596536237,-0.083361845851186,-0.0679417235962017,-0.3507640667840774,-1.0345830105564258
0.4039067281418257,0.4056660881121906,-0.075934806748711,-0.0680909104045945,-0.31890923387607184,-1.0368560238136284
0.4254855583434009,0.4046894510743815,-0.0600113487297042,-0.0678234699071607,-0.25061296028515057,-1.032781294936935
0.4294034168764529,0.4046894510743815,-0.0506948393902285,-0.0672158087129497,-0.21065412282649584,-1.0235229565810897
0.4352802046760309,0.4037128140365724,-0.0461754876442725,-0.0663732669232588,-0.19127046364097236,-1.0106859726791868
0.4451054592784502,0.4046894510743815,-0.0377478112207051,-0.0654285591671662,-0.15512386193720398,-0.9962923860282354
0.4490233178115022,0.4056660881121906,-0.0309033848988632,-0.0645351485923078,-0.12576787581336998,-0.9826803642774159
0.4490233178115022,0.407626596536237,-0.0319934443602722,-0.0638548266213349,-0.1304431793258293,-0.9723149648440016
0.4451054592784502,0.4086032335740461,-0.0359512159200729,-0.0635398901206727,-0.14741820126741229,-0.9675165858928452
0.4451054592784502,0.407626596536237,-0.0347809226551764,-0.0637114829696961,-0.1423987721392932,-0.970130978042347
0.4490233178115022,0.407626596536237,-0.0301966688070457,-0.0644366103937362,-0.12273674554629718,-0.9811790342730606
0.4490233178115022,0.4056660881121906,-0.0319212559246568,-0.0657068614621317,-0.13013356057699943,-1.0005326054737842
0.4392286714788723,0.4037128140365724,-0.0391751430806562,-0.0674219684064676,-0.16124573867377096,-1.0266640098787325
0.4352802046760309,0.4027361769987633,-0.0427934823158451,-0.0693810681394251,-0.17676492339208127,-1.0565128933904027
0.4352802046760309,0.400782902923145,-0.0452221872897083,-0.0712839924295906,-0.18718172476579056,-1.0855058867092935
0.4254855583434009,0.400782902923145,-0.0514046426922874,-0.0727441330672121,-0.2136984942472821,-1.107752619261916
0.419608770543823,0.3998062658853359,-0.0572659219176881,-0.0733133884015184,-0.23883772776634135,-1.1164258051524854
0.419608770543823,0.3998062658853359,-0.0607114341405837,-0.0725183635657363,-0.2536156513275967,-1.1043127905300392
0.4156909120107711,0.400782902923145,-0.0586611333661903,-0.0699053979424407,-0.244821838924254,-1.0645015929694093
0.4294034168764529,0.4037128140365724,-0.0478739869660616,-0.0650902969515627,-0.19855538719441407,-0.9911386160082141
0.4392286714788723,0.4086032335740461,-0.038636778424165,-0.0578071619037115,-0.1589366736561399,-0.880172621788568
0.4352802046760309,0.4164235642249472,-0.0390910932396992,-0.0479498176330174,-0.1608852459386866,-0.7299859233165106
0.4294034168764529,0.4261971689514665,-0.045340482621157,-0.0355993631777053,-0.18768909761856573,-0.5418141471934647
0.419608770543823,0.4408611932154596,-0.0590093550215428,-0.0210325194607237,-0.24631537389736416,-0.31987341904865657
0.3901942232761438,0.459431765630689,-0.0802643449117067,-0.0047077442225198,-0.337478775903271,-0.07114881037151632
0.3803995769435139,0.479962846469965,-0.0962449824991637,0.0127706929028157,-0.4060202946818911,0.19515301436131707
0.3803995769435139,0.5004866929608127,-0.0942800382932635,0.0307068603295155,-0.39759257961416694,0.4684288273068684
0.3941120818091958,0.5200411367622795,-0.0769617747051973,0.0483784735246714,-0.3233139356965921,0.7376738865817263
0.4039067281418257,0.538611709177509,-0.070025181561484,0.0651041882981498,-0.29356264281997735,0.9925072182004828
0.3901942232761438,0.5542523704793112,-0.084166961046273,0.0803032336802181,-0.35421723427886626,1.224080183816208
0.3843174354765659,0.5659792492814486,-0.087005271423776,0.0935390135540503,-0.3663908476891264,1.4257407960831052
0.3803995769435139,0.5737995799323498,-0.0869492686010537,0.1045410801104949,-0.36615064960539734,1.5933685066617786
0.3588207467419387,0.5806432735454417,-0.1181342145241214,0.1132036354529874,-0.4999039835946409,1.7253513766411004
0.3646975345415166,0.5835804190072973,-0.1146687968614607,0.1195627268556011,-0.4850406848995093,1.8222386230244862
0.3588207467419387,0.5845570560451063,-0.0769020880349737,0.1237577899828148,-0.3230579374608787,1.8861546904414688
0.374522789143936,0.5855336930829155,-0.1423827352443372,0.1259855260889807,-0.6039067450115531,1.9200965232175389
0.2941148644070023,0.5855336930829155,-0.1584223990020759,0.1264548916690316,-0.6727014291183179,1.927247786773773
0.6509766818824151,0.5845570560451063,0.2363621228669046,0.1253511393935857,1.0205433222944564,1.9104309945802536
1.503906727835743,0.5835804190072973,0.9008592489106256,0.12281459128253,3.870594954703226,1.8717840957956013
1.503906727835743,0.5816199105832508,1.21873794091873,0.1189366336958918,5.233987886828643,1.8126994548661588
1.503906727835743,0.5786899994698235,0.860447463437263,0.1137719330462499,3.6972673801467453,1.7340099703695815
0.5509794644802216,0.5737995799323498,0.1989487707639919,0.1073627281718494,0.860076134317823,1.6363591941073612
0.3588207467419387,0.5689163947433042,-0.1424901628147015,0.0997688171149578,-0.6043675056533716,1.5206582102718138
0.3803995769435139,0.560119427054594,-0.1069895005850928,0.0910959095360051,-0.45210391206721734,1.3885176134065211
0.3549028882088867,0.5503385879796465,-0.0798492907180608,0.0815155260371942,-0.3356985938140248,1.2425506949069531
0.3392008458068894,0.5366584351018908,-0.138873012991158,0.0712715082876598,-0.5888534223635984,1.0864726314202453
0.3294061994742595,0.5229710478757068,-0.1402012275514962,0.0606711001476038,-0.5945501815029778,0.9249645966705135
0.3392008458068894,0.5102675320357603,-0.1175636313010502,0.0500618484493634,-0.497456732007533,0.7633218212878089
0.3392008458068894,0.4975567818473854,-0.126723127101337,0.039798499285986,-0.5367421328535422,0.6069492239852834
0.3352829872738374,0.4868065400830569,-0.1307951794247329,0.0302059823293847,-0.55420730902465,0.46079743987520727
0.3392008458068894,0.4780023380459186,-0.1220674451950462,0.0215451359075771,-0.5167737487974657,0.3288406070463154
0.3451082418762568,0.4711658787812548,-0.1156384296392932,0.0139870300729539,-0.489199474114674,0.2136851523079446
0.3588207467419387,0.466275459243781,-0.1079841953041715,0.0075998678452575,-0.45637019283315117,0.1163702182607432
0.3588207467419387,0.4633455481303537,-0.0981752102227069,0.0023499437512768,-0.4142991095311866,0.03638226762702249
0.374522789143936,0.4604084026684982,-0.0891775881361165,-0.0018844329311589,-0.3757079907578649,-0.028132781919613867
0.3803995769435139,0.4565018545172618,-0.0805267410256169,-0.0052892459139231,-0.3386042020992276,-0.0800085820087333
0.3901942232761438,0.4535647090554062,-0.0686641767811783,-0.0080857483078823,-0.28772524526956084,-0.12261614955272082
0.4098141242111931,0.4496581609041697,-0.0510503547474968,-0.0105007989938036,-0.21217894074461313,-0.15941191108856687
0.4294034168764529,0.4477048868285516,-0.0302306506431033,-0.0127406749188575,-0.12288249484081233,-0.19353870639295806
0.4549001056110801,0.4457443784045051,-0.0033379405261212,-0.0149713930483556,-0.007538711753091766,-0.2275259733373734
0.4941092992113892,0.4418378302532686,0.0354601477539035,-0.0173072837051322,0.15886765857265212,-0.2631156510537124
0.5392258888810657,0.437924047753604,0.0804661237131112,-0.019808227019159,0.3518998783120798,-0.3012200744242277
0.5843118702809528,0.4340174996023676,0.12723884188261,-0.0224846968437053,0.5525097177629197,-0.3419988232910755
0.6353052477502072,0.4310875884889403,0.1783194926454862,-0.025308693859629,0.7715964321901222,-0.38502529945641073
0.6803912291500942,0.4271738059892756,0.2230331677674,-0.0282279792607827,0.9633749633192713,-0.42950359140370803
0.7058879178847215,0.4242438948758483,0.2494882069198209,-0.0311808604687514,1.076841560188848,-0.4744937497492451
0.7215593520169293,0.4222906208002301,0.2661911617629381,-0.0341091037684346,1.1484811231770313,-0.5191085244213461
0.7313846066193487,0.4193534753383746,0.2759887517829504,-0.0369672174298533,1.190503332658146,-0.5626548024936786
0.7215593520169293,0.4154469271871381,0.2649608325331925,-0.0397271754573259,1.143204197676219,-0.6047055793240971
0.6862680169496722,0.4125097817252826,0.233059999444156,-0.0423784561389075,1.0063803983591004,-0.6451005458946872
0.6411820355497851,0.4105565076496644,0.1877839845676716,-0.0449239517111849,0.8121899721702626,-0.683883768381109
0.5843118702809528,0.4086032335740461,0.1262308228576679,-0.0473728702648407,0.5481862885787484,-0.7211955414409165
0.5058934830803345,0.4066499594984279,0.0577060036574228,-0.0497322131865481,0.2542809198904804,-0.7571425383443432
0.4549001056110801,0.4046894510743815,-0.001146028510134,-0.0519986978408705,0.0018624762647623345,-0.791674744790887
0.4039067281418257,0.4017595399609542,-0.0501705609009415,-0.0541529775945092,-0.20840547387728894,-0.8244973950807921
0.3588207467419387,0.3998062658853359,-0.0897464563825201,-0.0561576185690226,-0.37814788674950145,-0.8550401458781909
0.3352829872738374,0.3968691204234804,-0.1190935523160287,-0.0579595722884119,-0.5040186172517275,-0.8824947495201785
0.3098169068089997,0.3939392093100531,-0.1434822773549128,-0.0594969802904465,-0.6086227199410549,-0.9059187292138328
0.2901970058739504,0.3919859352344348,-0.1568987836179908,-0.0607092500058149,-0.6661665889476336,-0.9243888953365812
0.2941148644070023,0.3900326611588167,-0.1591981822180261,-0.0615486452497889,-0.6760287907190793,-0.9371779384037281
0.2901970058739504,0.3900326611588167,-0.1631112096569506,-0.0619913035251082,-0.6928119035466183,-0.9439222889200422
0.2843202180743724,0.3890487897725793,-0.1595986690007915,-0.0620457076679869,-0.6777464926687844,-0.9447511915511947
0.3098169068089997,0.3910092981966258,-0.1454856464504259,-0.0617571628251115,-0.6172152407168462,-0.9403549164366659
0.3039095107396323,0.392962572272244,-0.1445939449771455,-0.0612076141822866,-0.613390701618122,-0.9319819820996713
0.2999916522065803,0.3939392093100531,-0.147797256036728,-0.0605109654641847,-0.627129815839476,-0.9213678280138113
0.3196115531416296,0.392962572272244,-0.1297785694593881,-0.0598046707184535,-0.5498470329938047,-0.9106067068541402
0.3392008458068894,0.392962572272244,-0.1117735789723442,-0.0592385849636108,-0.47262299316292744,-0.9019818127409612
0.3352829872738374,0.3919859352344348,-0.1111001147691028,-0.058961881990041,-0.46973448141985213,-0.8977659605888356
0.3392008458068894,0.3900326611588167,-0.1074151202106942,-0.0591085041861793,-0.4539294096671132,-0.8999998993613914
0.3549028882088867,0.3890487897725793,-0.0985127963952047,-0.0597813937526168,-0.41574702854286744,-0.9102520585276275
0.3451082418762568,0.3880721527347702,-0.0963765807176234,-0.0610358730868865,-0.4065847240866895,-0.9293653312653488
0.3549028882088867,0.3870955156969611,-0.0959114752081799,-0.0628630495111047,-0.4045898701370209,-0.9572042285528419
0.3490261004093087,0.386118878659152,-0.0981324244155036,-0.065174905391928,-0.4141155996936201,-0.9924277119322666
0.3392008458068894,0.3851422416213429,-0.1066773713761951,-0.0677935377822848,-0.450765178871127,-1.0323252484714858
0.3352829872738374,0.3831889675457247,-0.110935357793857,-0.0704474994518694,-0.4690278329365913,-1.072761062630002
0.3392008458068894,0.3812284591216783,-0.1101521563141933,-0.0727780780413426,-0.46566865414087494,-1.1082698055805005
0.3294061994742595,0.37927518504606,-0.1129022026081515,-0.0743574847641482,-0.4774636997808159,-1.1323336786409106
0.3352829872738374,0.3782985480082509,-0.1144310676061882,-0.0747193525664287,-0.4840210557310663,-1.1378471038612739
0.3352829872738374,0.3773219109704418,-0.1082991141380328,-0.0733998943203596,-0.45772089082919276,-1.1177438110973195
0.3490261004093087,0.3782985480082509,-0.0976267551537474,-0.0699859009222106,-0.41194676637825617,-1.065728138012048
0.3588207467419387,0.3812284591216783,-0.0876185672230321,-0.0641638917629935,-0.3690212950233776,-0.9770238876495592
0.3549028882088867,0.3880721527347702,-0.0876397158392305,-0.0557636086465246,-0.36911200218486423,-0.8490370026582534
0.3451082418762568,0.3978529918097178,-0.1047585338063543,-0.0447890467723616,-0.4425352167931688,-0.6818283539801245
0.3137347653420516,0.4125097817252826,-0.1269945129151775,-0.0314315314562588,-0.5379061161898641,-0.4783129780304762
0.3098169068089997,0.4301109514511312,-0.1371714055436203,-0.0160618721289579,-0.5815551679490945,-0.2441405348633829
0.3137347653420516,0.4506347979419788,-0.1329801000048084,0.0007980665430679,-0.5635785105270594,0.01273783481281614
0.3196115531416296,0.4711658787812548,-0.1208580962016737,0.0185206171140054,-0.5115868082711249,0.2827589769845869
0.3352829872738374,0.4907130882342934,-0.1138756544014877,0.0364278702581044,-0.48163886888829904,0.5555942513303643
0.3235294116746816,0.5073303865739046,-0.1178982894909689,0.0538495913524591,-0.49889209279856517,0.8210319494577417
0.3294061994742595,0.5200411367622795,-0.1193565975590738,0.0701757276810762,-0.5051468275854599,1.069777295736194
0.3098169068089997,0.5337212896400352,-0.1266818408724641,0.0848973795273725,-0.5365650547603744,1.294076683698488
0.3098169068089997,0.54643203982841,-0.1432905059873474,0.0976325965936809,-0.6078002057754435,1.4881107108147167
0.3294061994742595,0.5571822815927384,-0.1192645706780257,0.1081359539604115,-0.5047521210438107,1.6481400780014992
0.3137347653420516,0.5650026122436396,-0.0998470433246221,0.1162930374412002,-0.42146966072618897,1.7724215683804845
0.3196115531416296,0.5698930317811133,-0.1761180151540688,0.1221025933221844,-0.7485985515042891,1.8609360803416768
0.274494963471953,0.5718463058567315,-0.1321945248296117,0.1256502659309151,-0.5602091508674032,1.9149884926074296
0.7509738992846084,0.5718463058567315,0.324579393996824,0.12707861070119,1.3989103125136604,1.936750782676285
1.503906727835743,0.5698930317811133,0.9663232818147746,0.1265583328462193,4.151372502912299,1.928823818660381
1.503906727835743,0.5679397577054951,1.2101634988683876,0.1242652938209104,5.197211802170356,1.8938870292755785
1.407857977236391,0.5650026122436396,0.8028211581393587,0.120366653565598,3.4501061223369227,1.8344872667841343
0.4745200065461294,0.5610960640924031,0.145668983237538,0.1150176661655869,0.6315572446752946,1.7529899855980997
0.3196115531416296,0.5562056445549294,-0.1669790315566692,0.1083684281585913,-0.7094011282206074,1.6516820596291841
0.3451082418762568,0.5503385879796465,-0.1156522216326221,0.1005777456413579,-0.48925862846096174,1.5329830618082554
0.3352829872738374,0.5435021287149827,-0.0770517476780787,0.0918296992457586,-0.3236998329536051,1.3996976483991395
0.3392008458068894,0.5347051610262725,-0.1229301367735539,0.0823477966221906,-0.5204738634333707,1.2552311865245211
0.3137347653420516,0.523947684913516,-0.1328264666240526,0.0724019935713627,-0.5629195715332634,1.1036967282731225
0.3098169068089997,0.5122208061113784,-0.1275699257913237,0.0623053118767581,-0.5403740823295123,0.9498634799260857
0.3137347653420516,0.4995100559230035,-0.1339491085424871,0.0523990129450948,-0.5677346223541668,0.7989309072404591
0.3196115531416296,0.4887598141586752,-0.1298175330938141,0.0430278051087811,-0.5500141493973949,0.656150993403451
0.3137347653420516,0.4789862094321558,-0.1256044748461533,0.0345087717960245,-0.5319441938391689,0.5263548279981113
0.3235294116746816,0.4711658787812548,-0.1259245982189326,0.0270991023682407,-0.5333172142863661,0.41346095338356165
0.3235294116746816,0.4652988222059719,-0.121317936889129,0.0209680325072089,-0.5135590812134215,0.3200478478610673
