ECG,PPG,ECG_Filtered,PPG_Filtered
0.7254772105499813,0.4359707736779858,-0.03373359315297411,-0.031064865509429673
0.6705965828174644,0.4320642255267494,-0.08366712936892826,-0.03464550374603189
0.60980855901558,0.4281504430270847,-0.13979340453083966,-0.03817400449120093
0.5509794644802216,0.4242438948758483,-0.1931323768674324,-0.041580155998913515
0.4999860870109672,0.4213067494139927,-0.23886075892830388,-0.044804224972172985
0.4549001056110801,0.4183768383005654,-0.2817527893323023,-0.04779894825017679
0.4098141242111931,0.4174002012627563,-0.31691020308933576,-0.05052861338742379
0.3901942232761438,0.4164235642249472,-0.3364157999120924,-0.052965829835257335
0.374522789143936,0.4154469271871381,-0.345743931090666,-0.05508736136188089
0.3588207467419387,0.414470290149329,-0.35331103090512395,-0.05687085136880904
0.3549028882088867,0.4125097817252826,-0.35842636206636036,-0.058294219736927104
0.3490261004093087,0.4115331446874735,-0.3547132393152496,-0.059338880117922405
0.3549028882088867,0.4095798706118552,-0.3432649838736892,-0.05999684347066763
0.3646975345415166,0.407626596536237,-0.33549618740392306,-0.06028050034365813
0.3549028882088867,0.4066499594984279,-0.3314173926120566,-0.06023273011384365
0.3646975345415166,0.4066499594984279,-0.3216454708335201,-0.05993427655648744
0.374522789143936,0.4066499594984279,-0.3102577879766435,-0.05950528600974365
0.3705743223410945,0.407626596536237,-0.29990728432897734,-0.059098607463446556
0.3901942232761438,0.4086032335740461,-0.2855806494874391,-0.05888379966517378
0.3901942232761438,0.4086032335740461,-0.27501106483141763,-0.05902253661995897
0.3901942232761438,0.4105565076496644,-0.2716135963716303,-0.05963794961560552
0.3941120818091958,0.4115331446874735,-0.26311360195571865,-0.06078208860155331
0.4039067281418257,0.4115331446874735,-0.24976875669685955,-0.06240683412293913
0.4039067281418257,0.4105565076496644,-0.24293563902089546,-0.06434395698804428
0.3999888696087737,0.4086032335740461,-0.24340760489881386,-0.0662993889312066
0.3941120818091958,0.4066499594984279,-0.24613463049823373,-0.06786510187967072
0.3843174354765659,0.4046894510743815,-0.24772454445283618,-0.06854951022181503
0.3843174354765659,0.4046894510743815,-0.24713898472187723,-0.0678244119083116
0.3803995769435139,0.4056660881121906,-0.24383708939027843,-0.06518364430763199
0.3901942232761438,0.4086032335740461,-0.23148151674724782,-0.06020629421673033
0.4039067281418257,0.4125097817252826,-0.21039247729482868,-0.05261583189477455
0.419608770543823,0.4203301123761837,-0.19495051551346695,-0.042326227175582966
0.419608770543823,0.4320642255267494,-0.18646415485822446,-0.029467194704636417
0.4254855583434009,0.4525880720175971,-0.17634324484470792,-0.014383342296799233
0.4254855583434009,0.4740957898946821,-0.17657387880977385,0.0023940002322621287
0.3999888696087737,0.4956035077717671,-0.19248979138839983,0.020198776978975673
0.3901942232761438,0.5180806283382331,-0.19941301727463717,0.038298211149040154
0.4039067281418257,0.5347051610262725,-0.18473429484544257,0.05596622765069383
0.419608770543823,0.5503385879796465,-0.16165671941628829,0.07255115087668132
0.4294034168764529,0.5640259752058304,-0.14568188908621693,0.08752819274487075
0.4352802046760309,0.5757600883563961,-0.1428993891970097,0.10053050136452281
0.4294034168764529,0.5845570560451063,-0.1404615338670403,0.11135651231382346
0.4156909120107711,0.5923773866960075,-0.1422655035598885,0.1199552201676951
0.4098141242111931,0.5962839348472438,-0.16189408305782768,0.12639420070976778
0.4156909120107711,0.5992210803090994,-0.14586640250804947,0.13081742132969146
0.419608770543823,0.6011743543847177,-0.10866993373129319,0.13340087844716847
0.4039067281418257,0.6021509914225267,-0.17824671459704206,0.1343138072062327
0.3490261004093087,0.6031276284603359,-0.19997852091504592,0.13369167518917413
0.654894540415467,0.6031276284603359,0.18247208697491013,0.1316246551895503
1.503906727835743,0.6011743543847177,0.8271643007156144,0.12816223281087732
1.503906727835743,0.598237208922862,1.1370157700700385,0.12333161466043308
1.503906727835743,0.5933540237338165,0.8220627634834561,0.11716519703461609
0.6607713282150449,0.5855336930829155,0.22350872272015182,0.109730902483107
0.4294034168764529,0.5777133624320144,-0.11908334984828674,0.10115883829613774
0.419608770543823,0.5718463058567315,-0.12095904840247622,0.0916584160184068
0.4039067281418257,0.5620727011302122,-0.09013506459177034,0.08152162032563426
0.3843174354765659,0.5474086768662192,-0.13863075175528808,0.0711103746193425
0.3490261004093087,0.5337212896400352,-0.1678371028810928,0.060828781676811924
0.3392008458068894,0.5210177738000886,-0.163301164220159,0.05108407293226222
0.3549028882088867,0.5092836606495229,-0.14892824667972704,0.0422426788966917
0.3803995769435139,0.5024472013848591,-0.12778839593825086,0.03458913618008667
0.3803995769435139,0.4975567818473854,-0.11433926801794264,0.028295114950608245
0.3901942232761438,0.4956035077717671,-0.10415076425676852,0.023403784837987444
0.4039067281418257,0.494626870733958,-0.09399463236089003,0.01983161916740367
0.3941120818091958,0.4936429993477207,-0.09257903441665687,0.01738639796729574
0.4039067281418257,0.4936429993477207,-0.08238707673676506,0.015797404936271714
0.4294034168764529,0.4936429993477207,-0.05790312320334709,0.014752150424143908
0.4352802046760309,0.4916897252721025,-0.04454095135147361,0.013933571768031937
0.4392286714788723,0.4887598141586752,-0.038739580503026054,0.013052452249509922
0.4607768934106581,0.4868065400830569,-0.017583734792398456,0.01187143687781873
0.4843146528787593,0.4838693946212014,0.012826812359823837,0.010219034716581825
0.5156881294129645,0.4809394835077741,0.043042182788140426,0.007993878856872048
0.5509794644802216,0.4780023380459186,0.0840506971190878,0.00516089651772033
0.605890700482528,0.4750724269324912,0.13845362255617802,0.001741776560318072
0.654894540415467,0.4711658787812548,0.19200744423393654,-0.002197748846472885
0.6960932715520916,0.4682287333193992,0.2348824526191843,-0.006561612487046945
0.7254772105499813,0.4633455481303537,0.26576143552863785,-0.011236476993418074
0.7411792529519786,0.4584551285928799,0.2853958724199988,-0.016103122988176677
0.7509738992846084,0.4535647090554062,0.29509995120638904,-0.02104561875044333
0.7411792529519786,0.4486815238663607,0.2904508783381085,-0.025958062631588574
0.7156825642173513,0.4437911043288869,0.26345005074681893,-0.030748897125455223
0.6647197950178864,0.4389079191398414,0.21720917245448138,-0.03534293480418737
0.605890700482528,0.4349941366401767,0.16078385109260263,-0.03968134869516702
0.5451026766806437,0.4310875884889403,0.09736078973802458,-0.04371997746896714
0.4745200065461294,0.4261971689514665,0.035561075693409945,-0.04742637914174555
0.4294034168764529,0.4232672578380392,-0.013539921916759689,-0.05077612716780799
0.3843174354765659,0.4203301123761837,-0.05444851417703249,-0.05374888533016763
0.3451082418762568,0.4183768383005654,-0.0916580904468651,-0.05632485123940698
0.3196115531416296,0.4164235642249472,-0.11613791707110893,-0.05848222897801019
0.3098169068089997,0.414470290149329,-0.12455286412573983,-0.060196423667267705
0.3098169068089997,0.414470290149329,-0.12290972283584237,-0.06144156116769954
0.3098169068089997,0.4134864187630917,-0.11984410794915565,-0.06219467640348696
0.3039095107396323,0.4125097817252826,-0.12670440497326396,-0.06244248189434645
0.2941148644070023,0.4125097817252826,-0.13526951789743907,-0.062190052457160326
0.2999916522065803,0.4125097817252826,-0.12268135349030951,-0.06147011868358596
0.3294061994742595,0.4125097817252826,-0.10018716351881482,-0.06035109073762316
0.3294061994742595,0.4125097817252826,-0.09430619165352548,-0.058941600325283366
0.3235294116746816,0.4134864187630917,-0.09512584095035556,-0.057389391533166495
0.3392008458068894,0.4154469271871381,-0.08911144819141958,-0.05587290713720329
0.3294061994742595,0.4174002012627563,-0.08636873637219356,-0.054584930681288384
0.3352829872738374,0.4193534753383746,-0.08593947496132098,-0.05370904724530537
0.3392008458068894,0.4203301123761837,-0.08024416228131441,-0.05339121821987341
0.3392008458068894,0.4213067494139927,-0.07704633419712305,-0.05371009745268755
0.3392008458068894,0.4213067494139927,-0.07829023034179343,-0.05465056054479046
0.3392008458068894,0.4203301123761837,-0.07685601005909727,-0.05608509319562473
0.3352829872738374,0.4193534753383746,-0.07826449835954655,-0.05776711249198013
0.3294061994742595,0.4164235642249472,-0.08737055040971876,-0.05933900103070639
0.3196115531416296,0.414470290149329,-0.09123431098072904,-0.06035575248578371
0.3294061994742595,0.4134864187630917,-0.08434444286367158,-0.06032291413118016
0.3352829872738374,0.4134864187630917,-0.07797314395628809,-0.05874531763455339
0.3392008458068894,0.4164235642249472,-0.07056888692584892,-0.05518128103006951
0.3549028882088867,0.4213067494139927,-0.05578502357487474,-0.049295829425417124
0.3646975345415166,0.4281504430270847,-0.04878099392778116,-0.040906177857107914
0.3451082418762568,0.4369474107157949,-0.060142116183615715,-0.030013289451100753
0.3352829872738374,0.4506347979419788,-0.07809627742058108,-0.016814742395459704
0.3137347653420516,0.4682287333193992,-0.09303542473455222,-0.0016963475619804613
0.3098169068089997,0.4868065400830569,-0.10003282724294418,0.014797216334617572
0.3137347653420516,0.5053771124982864,-0.09298924507414966,0.032009438747691805
0.3294061994742595,0.523947684913516,-0.08192442030159347,0.049230706108086414
0.3196115531416296,0.5415416202909363,-0.08171253099994419,0.0657610183119953
0.3352829872738374,0.5581589186305476,-0.08289459844509815,0.08096850494572848
0.3098169068089997,0.5718463058567315,-0.08448303780144087,0.09433633889646084
0.3098169068089997,0.5816199105832508,-0.10553193755943935,0.10549255853050399
0.3039095107396323,0.5874869671585337,-0.10936933521514343,0.1142201059067508
0.3098169068089997,0.590416878271961,-0.07672675222839097,0.12044767439157711
0.3137347653420516,0.590416878271961,-0.10990168160629155,0.12422515482919251
0.2647003171393232,0.5914007496581983,-0.15597332484814405,0.12568989197518335
0.4549001056110801,0.590416878271961,0.1043437742757427,0.12503103472071678
1.2078329341622147,0.5894402412341518,0.7148723423451291,0.1224587418722892
1.503906727835743,0.5865103301207246,1.1829268498184906,0.11818309239925813
1.503906727835743,0.5826037819694881,1.039696837271985,0.11240480520908526
0.8255050362219641,0.5777133624320144,0.43056682180490585,0.1053169896389249
0.3352829872738374,0.5708696688189224,-0.04971004290557213,0.09711473625998093
0.3137347653420516,0.5630493381680214,-0.12268866550044322,0.08800785154675911
0.3352829872738374,0.5522990964036929,-0.061964641535787485,0.07823166914392311
0.3137347653420516,0.5405649832531272,-0.08603294850270424,0.06805164456822976
0.3098169068089997,0.5288381044509897,-0.11225489686646033,0.05775912999451093
0.3039095107396323,0.517103991300424,-0.09832730587795499,0.04765789284089746
0.3098169068089997,0.5073303865739046,-0.09724498719819363,0.038043061771450476
0.3137347653420516,0.4975567818473854,-0.10263944668785918,0.029175822234803372
0.3098169068089997,0.487783177120866,-0.09278665966180843,0.021258113069814254
0.3352829872738374,0.479962846469965,-0.08076456480600704,0.01441175598752857
0.3352829872738374,0.4740957898946821,-0.07258360208800098,0.008665916656367519
0.3490261004093087,0.4701892417434457,-0.06208564678594704,0.003955590613416554
0.3646975345415166,0.4682287333193992,-0.04966017868509562,0.00013203049559315952
0.374522789143936,0.4672520962815901,-0.03424699505468186,-0.003016056155482855
0.4039067281418257,0.466275459243781,-0.011573661640415393,-0.0057336835697176045
0.4254855583434009,0.4643221851681628,0.013307026328542464,-0.008267674431613772
0.4490233178115022,0.4604084026684982,0.03559543861808882,-0.010836641646795342
0.4803967943457073,0.4565018545172618,0.06394695755014723,-0.01360725508132617
0.5156881294129645,0.4525880720175971,0.10427421096179856,-0.016679748024751632
0.5705993654152709,0.4477048868285516,0.1499316529859127,-0.02008377307409233
0.60980855901558,0.4437911043288869,0.19870750550391675,-0.023783926479626526
0.6764733706170423,0.4389079191398414,0.2556273914613283,-0.02769285601967099
0.7313846066193487,0.4330408625645585,0.3151898516170284,-0.031689008820068545
0.7764705880192357,0.4301109514511312,0.35937116292127286,-0.035635803146461795
0.800008347487337,0.4271738059892756,0.378250579452339,-0.039399306043785914
0.800008347487337,0.4252205319136574,0.382530109041078,-0.042862284400479705
0.800008347487337,0.4222906208002301,0.3795962080768465,-0.04593356181696891
0.7764705880192357,0.4193534753383746,0.35321863469165815,-0.048552641104203875
0.7156825642173513,0.4174002012627563,0.29595200232043867,-0.050690269817469456
0.6509766818824151,0.4154469271871381,0.22782219308347654,-0.05234594617886483
0.5843118702809528,0.4134864187630917,0.15947079152674393,-0.053543369255773
0.5058934830803345,0.4125097817252826,0.08396518296670756,-0.05432467266871208
0.4352802046760309,0.4115331446874735,0.007907374657088032,-0.05474406852762825
0.3705743223410945,0.4115331446874735,-0.05315991777497515,-0.054861360515880794
0.3294061994742595,0.4115331446874735,-0.09873569671219148,-0.05473571921070868
0.2901970058739504,0.4125097817252826,-0.13673060136531862,-0.05442015297484693
0.2588235293397452,0.4134864187630917,-0.1687639307247807,-0.0539572031916013
0.2392036284046959,0.4134864187630917,-0.19132823801817947,-0.0533764560796696
0.229408982072066,0.414470290149329,-0.19931044826897373,-0.052694405570890855
0.2392036284046959,0.4154469271871381,-0.19172639343502054,-0.05191697821579967
0.2549056708066933,0.4164235642249472,-0.177838467622626,-0.05104466480985402
0.2647003171393232,0.4164235642249472,-0.16588779422974337,-0.05007975250451657
0.2843202180743724,0.4174002012627563,-0.1511145118119736,-0.04903467056918961
0.3039095107396323,0.4174002012627563,-0.12863034185233468,-0.047940018779650734
0.3294061994742595,0.4183768383005654,-0.10633334602660562,-0.046850541473252696
0.3451082418762568,0.4183768383005654,-0.09162251420550435,-0.045847254512586005
0.3549028882088867,0.4183768383005654,-0.0801996592537228,-0.04503420173646574
0.3705743223410945,0.4193534753383746,-0.06843594781781216,-0.044528935354595935
0.3803995769435139,0.4203301123761837,-0.05880952095109726,-0.0444467567982744
0.3843174354765659,0.4203301123761837,-0.052259750020953746,-0.04487992766944826
0.3941120818091958,0.4213067494139927,-0.05026238725157709,-0.04587427292328355
0.3843174354765659,0.4203301123761837,-0.05374417063223333,-0.04740658451786336
0.3843174354765659,0.4183768383005654,-0.05881009984809275,-0.04936673686727042
0.3803995769435139,0.4164235642249472,-0.0635139230415508,-0.05154828251419905
0.374522789143936,0.4154469271871381,-0.06819911398896583,-0.05365048912582868
0.3705743223410945,0.4134864187630917,-0.07396321127859636,-0.05529342470800814
0.3646975345415166,0.4115331446874735,-0.08280411462318349,-0.056045973441142996
0.3588207467419387,0.4105565076496644,-0.08563287266244049,-0.05546475061650193
0.374522789143936,0.4115331446874735,-0.0738364660966089,-0.05314000852763761
0.3843174354765659,0.414470290149329,-0.06364943618022606,-0.04874310198375541
0.3803995769435139,0.4193534753383746,-0.07048528030846687,-0.042069250001808944
0.3588207467419387,0.4271738059892756,-0.08670167700943295,-0.03306942987367121
0.3490261004093087,0.4389079191398414,-0.10801710986014665,-0.021866361577554543
0.3137347653420516,0.4535647090554062,-0.13295243128420048,-0.008751622239356934
0.3098169068089997,0.4721425158190639,-0.14474036952936475,0.005836272504708527
0.3196115531416296,0.4897364511964843,-0.13458681065324327,0.021349939437608236
0.3352829872738374,0.5083070236117138,-0.11792257185310412,0.03718182599585782
0.3392008458068894,0.523947684913516,-0.11507615365053234,0.0527164097098591
0.3352829872738374,0.5366584351018908,-0.12314659536415566,0.06737861440726899
0.3352829872738374,0.5483853139040282,-0.12182158813976203,0.0806724350865709
0.3235294116746816,0.5591427900167849,-0.1258822479769302,0.09220605764963102
0.3294061994742595,0.5679397577054951,-0.14323358957694768,0.10170242100358497
0.3352829872738374,0.5737995799323498,-0.11748379675923533,0.10899658863219112
0.3451082418762568,0.5777133624320144,-0.09842440855901775,0.11402310579661867
0.2999916522065803,0.5796666365076326,-0.19610098194489117,0.11679757482126576
0.2588235293397452,0.5796666365076326,-0.180642069053478,0.11739694086318787
0.7156825642173513,0.5786899994698235,0.28199328390822287,0.11594244240033987
1.503906727835743,0.5767367253942053,0.9466777531832125,0.11258792614906789
1.503906727835743,0.5737995799323498,1.1807345976223134,0.10751446870398068
1.3784434299687118,0.5698930317811133,0.7673802456606802,0.10093033572079038
0.5196059879460164,0.5640259752058304,0.16062023201120795,0.09307368407499883
0.4039067281418257,0.5552290075171202,-0.10407761373674672,0.0842145086369339
0.4098141242111931,0.5444787657527919,-0.06831331773541285,0.0746524442724752
0.3705743223410945,0.5327446526022261,-0.06858380465276875,0.06470816485004745
0.3549028882088867,0.5210177738000886,-0.13051165208292145,0.054707951927987636
0.3352829872738374,0.5092836606495229,-0.13361499863102236,0.04496298513498859
0.3549028882088867,0.4995100559230035,-0.1086817570005163,0.03574646496340976
0.3705743223410945,0.4916897252721025,-0.10178801629534161,0.027272418635609346
0.374522789143936,0.4858226686968196,-0.10150157938472042,0.019679828516025663
0.3646975345415166,0.479962846469965,-0.0998725698855439,0.013024710120043515
0.3803995769435139,0.4740957898946821,-0.09588675624936391,0.007281321325627498
0.3803995769435139,0.4692053703572084,-0.09405738029498746,0.002352226527192468
0.3803995769435139,0.4652988222059719,-0.08996209433695615,-0.0019142518105280811
0.3999888696087737,0.4623689110925446,-0.0746726032676214,-0.005701518795859721
0.419608770543823,0.4604084026684982,-0.06027390425939426,-0.00920001869149358
0.419608770543823,0.4574784915550708,-0.04788226160727166,-0.01258353486927572
0.4607768934106581,0.4545485804416435,-0.022860537271395035,-0.015989541386342676
0.4745200065461294,0.4506347979419788,0.0034933141650741327,-0.019506105208781748
0.5058934830803345,0.4457443784045051,0.022927954711980503,-0.023166815688438196
0.5254827757455944,0.4408611932154596,0.0553779320076334,-0.026953894180075696
0.5901886580805307,0.4369474107157949,0.10268417172845802,-0.030808286061689852
0.6196032053482099,0.4320642255267494,0.1483399677090429,-0.034644460718647345
0.6764733706170423,0.4281504430270847,0.19358691181354254,-0.03836706296454214
0.7215593520169293,0.4252205319136574,0.24038661238184422,-0.04188655211486977
0.7509738992846084,0.4232672578380392,0.27507879513403677,-0.045131485563558775
0.7764705880192357,0.4213067494139927,0.2901765153564609,-0.04805600847699742
0.7705938002196577,0.4193534753383746,0.29317383821023874,-0.05064217112551975
0.7705938002196577,0.4174002012627563,0.28754271684162425,-0.05289764379541159
0.7450971114850305,0.4154469271871381,0.2616794115964057,-0.054850033889407415
0.6901858754827241,0.4134864187630917,0.20944275681682886,-0.05653926766096675
0.6293978516808398,0.4125097817252826,0.14485242743308413,-0.05800944391200121
0.5646919693459035,0.4105565076496644,0.08163906829995374,-0.059301320998488234
0.5058934830803345,0.4095798706118552,0.02206183532855814,-0.06044627633375613
0.4549001056110801,0.4086032335740461,-0.029849610851323594,-0.06146225875386113
0.4156909120107711,0.407626596536237,-0.06830056891326224,-0.062351988640876696
0.3901942232761438,0.407626596536237,-0.0958427982018975,-0.06310347546865894
0.3646975345415166,0.407626596536237,-0.11976711703902179,-0.06369281299350556
0.3451082418762568,0.407626596536237,-0.14088244114358095,-0.06408913678884771
0.3352829872738374,0.407626596536237,-0.15216973824472665,-0.06426151898103367
0.3294061994742595,0.4086032335740461,-0.1535184383251136,-0.06418736803389408
0.3352829872738374,0.4086032335740461,-0.15612102778808779,-0.0638615752059968
0.3235294116746816,0.407626596536237,-0.15945994759352763,-0.06330523234437356
0.3392008458068894,0.407626596536237,-0.14954460491938668,-0.06257231664048267
0.3588207467419387,0.407626596536237,-0.1301039259428777,-0.06175244382573526
0.3646975345415166,0.4086032335740461,-0.11938965259012452,-0.0609678323911137
0.374522789143936,0.4086032335740461,-0.11868993575531915,-0.06036315339370566
0.3646975345415166,0.4105565076496644,-0.11764240676107013,-0.06008797142327021
0.3803995769435139,0.4115331446874735,-0.11300508312973753,-0.06027286279504696
0.3843174354765659,0.4115331446874735,-0.10277099298030479,-0.061001772552357864
0.3941120818091958,0.4125097817252826,-0.09122347413470419,-0.06228443777392065
0.4039067281418257,0.4125097817252826,-0.09263644011814803,-0.06403346864847127
0.3803995769435139,0.4105565076496644,-0.10119052802525397,-0.06605072202468898
0.3941120818091958,0.4086032335740461,-0.09897477021589908,-0.06802681077042678
0.3941120818091958,0.4066499594984279,-0.09630566749435976,-0.06955599230396607
0.3803995769435139,0.4046894510743815,-0.10631607239426535,-0.07016648144442204
0.374522789143936,0.4046894510743815,-0.11688995840175789,-0.06936380365009637
0.3705743223410945,0.4056660881121906,-0.11978981720361959,-0.06668256149369008
0.374522789143936,0.4086032335740461,-0.11434953061602973,-0.06174030200702372
0.3901942232761438,0.414470290149329,-0.09978563352848747,-0.05428633784580469
0.3999888696087737,0.4242438948758483,-0.0911072563404896,-0.044238596002829325
0.3941120818091958,0.437924047753604,-0.09579506492644181,-0.031702933118845686
0.3901942232761438,0.4565018545172618,-0.09936916886983788,-0.016971764750219113
0.3803995769435139,0.4750724269324912,-0.10916857397095714,-0.0005019354508351675
0.3549028882088867,0.4926663623099116,-0.14000948588218787,0.017125113851094668
0.3196115531416296,0.5122208061113784,-0.16298427042641364,0.03525532042767791
0.3451082418762568,0.5307913785266078,-0.1521382142630082,0.05321912234438863
0.3588207467419387,0.5493619509418374,-0.1286604801567179,0.07038645365403691
0.374522789143936,0.5650026122436396,-0.11579025636559555,0.08621305227334096
0.3705743223410945,0.5786899994698235,-0.11728611958903287,0.1002730425748441
0.374522789143936,0.5894402412341518,-0.12565051236567143,0.11227489707076353
0.3392008458068894,0.598237208922862,-0.13483734725612975,0.12206038462257966
0.3490261004093087,0.604104265498145,-0.15379282565610744,0.1295886158841845
0.3392008458068894,0.6080180479978096,-0.15413703247768784,0.1349094082577614
0.3490261004093087,0.6099713220734279,-0.12037998340956822,0.1381315799706886
0.3549028882088867,0.6099713220734279,-0.15576672014940038,0.13939222354424124
0.2686181756723751,0.6099713220734279,-0.22579684550023368,0.13883240856712817
0.4490233178115022,0.6089946850356187,0.0016346902019927579,0.13658317364318226
1.1764594576280094,0.6089946850356187,0.6145937215905002,0.13276331526603904
1.503906727835743,0.6060575395737632,1.0972734502643553,0.1274877964713532
1.503906727835743,0.6011743543847177,0.9438609374105242,0.12088317493109527
0.8156797816195448,0.5943306607716257,0.3639211370843306,0.11310489508624606
0.4549001056110801,0.5845570560451063,-0.03283114215372014,0.10435099314592039
0.4294034168764529,0.5747834513185871,-0.08184345788576478,0.09486775098896513
0.3999888696087737,0.5630493381680214,-0.07173545981957444,0.0849447867695819
0.3646975345415166,0.5513224593658839,-0.12371623208609042,0.07489947974133883
0.3490261004093087,0.539588346215318,-0.14938215260373497,0.0650529621294639
0.3392008458068894,0.5288381044509897,-0.14240881609818296,0.05570171408942417
0.3490261004093087,0.5210177738000886,-0.13579508311021266,0.047089736393852305
0.3705743223410945,0.5131974431491875,-0.12688139007598703,0.039386193444207296
0.3588207467419387,0.5063537495360956,-0.11963360045944074,0.032672386745853176
0.3803995769435139,0.5024472013848591,-0.11077640283171097,0.026940208719581867
0.3941120818091958,0.4985334188851945,-0.09411321194679198,0.022102198699606123
0.4039067281418257,0.4965801448095762,-0.08000652132072014,0.018011324874119754
0.4156909120107711,0.494626870733958,-0.07268103320045456,0.014486970617731609
0.419608770543823,0.4916897252721025,-0.06673621707132171,0.011342609518921578
0.4294034168764529,0.4887598141586752,-0.05602818336630806,0.008410522008274805
0.4490233178115022,0.4858226686968196,-0.036690801541182226,0.005559676051861245
0.4706021480130775,0.4809394835077741,-0.015549572054005735,0.002704396632175759
0.4901914406783372,0.4760490639703003,0.004936339058693322,-0.0001966428843882785
0.5196059879460164,0.4721425158190639,0.03624395587674577,-0.0031496624588709843
0.5646919693459035,0.4682287333193992,0.07768047068731024,-0.006140296356817333
0.6000139126829501,0.4652988222059719,0.11757721844396826,-0.009149654216747363
0.6450998940828371,0.4623689110925446,0.16034351054774282,-0.01216824812331271
0.6960932715520916,0.4604084026684982,0.21258081025140882,-0.01520492836618731
0.7450971114850305,0.4584551285928799,0.26147887265994746,-0.0182892838441234
0.7764705880192357,0.4565018545172618,0.29413185153448185,-0.021467453057386114
0.796090488954285,0.4535647090554062,0.3122596425090227,-0.024792637224563797
0.796090488954285,0.4496581609041697,0.31540628404374405,-0.02831254366764049
0.7803884465522877,0.4457443784045051,0.29662075881761224,-0.03205637508277809
0.7411792529519786,0.4418378302532686,0.26060539393525883,-0.036023842806411716
0.7000111300851435,0.437924047753604,0.21900755488030532,-0.04017816915232346
0.6509766818824151,0.4330408625645585,0.1687936522403759,-0.044444326681418136
0.5843118702809528,0.4291270800648938,0.10518397295254191,-0.04871295524601757
0.5254827757455944,0.4242438948758483,0.04409409100995628,-0.052849564072487004
0.4803967943457073,0.4183768383005654,0.0019188290693688236,-0.05670782863620302
0.4549001056110801,0.414470290149329,-0.026118508497806697,-0.06014512840048541
0.4294034168764529,0.4115331446874735,-0.048118208847638885,-0.06303808346145304
0.4156909120107711,0.4095798706118552,-0.06402806766120067,-0.06529588022607864
0.3999888696087737,0.4086032335740461,-0.07741438831936456,-0.06686967320452297
0.3901942232761438,0.4095798706118552,-0.08866136805189642,-0.06775718630354295
0.3901942232761438,0.4095798706118552,-0.08658992517670742,-0.0680025607939916
0.4039067281418257,0.4095798706118552,-0.07234978993311647,-0.06769223485987483
0.4156909120107711,0.4105565076496644,-0.06376381554331706,-0.06694799186716274
0.4098141242111931,0.4105565076496644,-0.06294520642510276,-0.06591823031127263
0.419608770543823,0.4105565076496644,-0.05812894925721082,-0.06476809878980616
0.4254855583434009,0.4105565076496644,-0.05128959964415575,-0.06366860956945117
0.419608770543823,0.4105565076496644,-0.05103955042132209,-0.06278441541175199
0.4254855583434009,0.4105565076496644,-0.05476880060434074,-0.06225979642478159
0.4156909120107711,0.4105565076496644,-0.054111198878164186,-0.06220267083503771
0.4254855583434009,0.4115331446874735,-0.049592306248081613,-0.06266711023782051
0.4254855583434009,0.4105565076496644,-0.04960515982730799,-0.0636357707821518
0.4156909120107711,0.4105565076496644,-0.0548935996097581,-0.06500460949136466
0.4098141242111931,0.4105565076496644,-0.06263185506967141,-0.06657296279903001
0.4039067281418257,0.4095798706118552,-0.07182994238243465,-0.0680422828092481
0.3941120818091958,0.4095798706118552,-0.0729323228764186,-0.06902639653249808
0.4039067281418257,0.4095798706118552,-0.0685177143019584,-0.06907500814809586
0.3999888696087737,0.4095798706118552,-0.07555565947281653,-0.06771035445531645
0.3803995769435139,0.4105565076496644,-0.0821178459175976,-0.06447464316727002
0.4039067281418257,0.4125097817252826,-0.07145373431464842,-0.058983497438943905
0.4098141242111931,0.4164235642249472,-0.06086090345574274,-0.050978579230538015
0.4039067281418257,0.4252205319136574,-0.05905452336940107,-0.040371427009584425
0.4156909120107711,0.437924047753604,-0.059521896654541454,-0.02727081797554265
0.3941120818091958,0.4555252174794526,-0.07145417330686979,-0.011987891032087352
0.374522789143936,0.4760490639703003,-0.09241705962768179,0.004983350130880496
0.3646975345415166,0.4965801448095762,-0.1047442627549093,0.023008352937139032
0.3588207467419387,0.5180806283382331,-0.1078951571480462,0.04137131628687905
0.3588207467419387,0.5376350721396999,-0.10643628414385174,0.059342679265233816
0.3646975345415166,0.5552290075171202,-0.10372785331631233,0.07624473716452818
0.3549028882088867,0.5698930317811133,-0.10825627482674306,0.09150596146142906
0.3588207467419387,0.5806432735454417,-0.11119286039325103,0.10469695421584334
0.3490261004093087,0.5865103301207246,-0.10994686159606418,0.1155445372471247
0.3392008458068894,0.5923773866960075,-0.12792482355020443,0.12392452798751304
0.3352829872738374,0.597260571885053,-0.13755779649379937,0.129837430127113
0.3352829872738374,0.5992210803090994,-0.10930552419330788,0.1333737973431036
0.3451082418762568,0.6001977173469085,-0.13407026131461408,0.13467698779557313
0.274494963471953,0.6001977173469085,-0.19559064618229757,0.13391044426920246
0.4294034168764529,0.598237208922862,0.0025967510019328267,0.13123485684260436
1.0921642826278133,0.5943306607716257,0.5768078874744433,0.12679805941984085
1.503906727835743,0.5894402412341518,1.0913526430285325,0.1207377614548167
1.503906727835743,0.5845570560451063,1.0164122949610186,0.1131946642616307
0.8960877063564784,0.5767367253942053,0.4268476797848847,0.10433151990997802
0.3588207467419387,0.566963120667686,-0.06945936578994544,0.09435254905938022
0.3392008458068894,0.5562056445549294,-0.15328378361306347,0.08351755000376129
0.3549028882088867,0.545455402790601,-0.0926398707987573,0.07214604787062522
0.3352829872738374,0.531768015564417,-0.12066457904853231,0.060608772561704195
0.3098169068089997,0.517103991300424,-0.15516820535664994,0.04930627855469948
0.3137347653420516,0.5034238384226682,-0.14675300269740982,0.03863720298204828
0.3098169068089997,0.4916897252721025,-0.14401284764650937,0.028960984500283886
0.3196115531416296,0.4819161205455832,-0.14035117383252024,0.020561278517988488
0.3352829872738374,0.4760490639703003,-0.12720192211047993,0.013616403185426363
0.3294061994742595,0.4721425158190639,-0.12191238901400608,0.008181885174428378
0.3451082418762568,0.4701892417434457,-0.11613236979497724,0.004187880625203526
0.3549028882088867,0.4692053703572084,-0.10336597680454447,0.0014515251072018923
0.3588207467419387,0.4672520962815901,-0.09417635722891093,-0.0002982176587851114
0.3705743223410945,0.466275459243781,-0.08942282861380166,-0.0013873661267425526
0.374522789143936,0.4652988222059719,-0.0813742725220988,-0.002160290035031253
0.3901942232761438,0.4633455481303537,-0.06372375795868923,-0.0029443633923885897
0.419608770543823,0.4613850397063073,-0.03855431004921528,-0.004019786841259609
0.4451054592784502,0.459431765630689,-0.01024016585787489,-0.005597257402767485
0.4803967943457073,0.4555252174794526,0.027205532264922783,-0.007804855846935364
0.5294006342786464,0.4525880720175971,0.07223845770935988,-0.010684325303544314
0.5705993654152709,0.4496581609041697,0.1156956710786871,-0.014195969219392084
0.6196032053482099,0.4457443784045051,0.1673971618891466,-0.01823075880193563
0.6862680169496722,0.4408611932154596,0.2293799354606188,-0.022627868849249458
0.7254772105499813,0.4349941366401767,0.27271978113027845,-0.027195641011714185
0.7411792529519786,0.4301109514511312,0.2865430277460638,-0.031733813415027956
0.7450971114850305,0.4252205319136574,0.29323926755420904,-0.03605477854049606
0.7548917578176605,0.4213067494139927,0.29760336758522404,-0.040001744445882774
0.7254772105499813,0.4174002012627563,0.27768407225264913,-0.0434620519590782
0.6862680169496722,0.414470290149329,0.22721394482181756,-0.046374516440465606
0.615685346815158,0.4125097817252826,0.1674201615290204,-0.0487304202782587
0.5646919693459035,0.4105565076496644,0.10985153426355747,-0.05056856983703396
0.4941092992113892,0.4105565076496644,0.041470952730624254,-0.05196554088236634
0.419608770543823,0.4086032335740461,-0.03255433830352955,-0.053022760252103146
0.3705743223410945,0.4066499594984279,-0.08119542950187764,-0.05385230923431827
0.3490261004093087,0.4056660881121906,-0.10326914065427521,-0.05456324679755492
0.3294061994742595,0.4046894510743815,-0.12500380474287104,-0.05524991235468185
0.2999916522065803,0.4037128140365724,-0.1464594465358955,-0.05598323679326221
0.3039095107396323,0.4027361769987633,-0.15512590224434536,-0.05680569936546258
0.2843202180743724,0.4017595399609542,-0.16018872673552367,-0.0577302497538445
0.2901970058739504,0.4017595399609542,-0.16729240264220074,-0.058743233786129424
0.2843202180743724,0.400782902923145,-0.16378519131948488,-0.05981106605287617
0.2999916522065803,0.3988296288475269,-0.15123783456569587,-0.06089002420765698
0.3098169068089997,0.3968691204234804,-0.1455181059454784,-0.06193804909469502
0.3039095107396323,0.3939392093100531,-0.14155539188821759,-0.06292684966714816
0.3294061994742595,0.3919859352344348,-0.12677374438501499,-0.0638520872438753
0.3352829872738374,0.3900326611588167,-0.11374029144307507,-0.06473918962268277
0.3352829872738374,0.3890487897725793,-0.11538152105108065,-0.06564263080188618
0.3352829872738374,0.3880721527347702,-0.11810564377174083,-0.06663738248952095
0.3392008458068894,0.3880721527347702,-0.10915934179191084,-0.06780260454590312
0.3549028882088867,0.3880721527347702,-0.09835202957117793,-0.06919925379912577
0.3549028882088867,0.3880721527347702,-0.09558582853122315,-0.07084482796059516
0.3549028882088867,0.3870955156969611,-0.09563177839443276,-0.0726895725953586
0.3549028882088867,0.3851422416213429,-0.09664817493385969,-0.07459886172505635
0.3490261004093087,0.3831889675457247,-0.10325436564918367,-0.07634595206166231
0.3392008458068894,0.3812284591216783,-0.1095381876654036,-0.07761794754708418
0.3451082418762568,0.37927518504606,-0.10825465786769098,-0.07803583141489934
0.3490261004093087,0.3782985480082509,-0.10214647087164583,-0.07718718031286104
0.3549028882088867,0.3802518220838691,-0.09460207909857603,-0.07466805262283988
0.3646975345415166,0.3822123305079156,-0.0883109418544589,-0.07012889684802061
0.3705743223410945,0.3880721527347702,-0.08234386252837798,-0.06331843315511189
0.3705743223410945,0.3968691204234804,-0.07565173819108775,-0.05411948271924906
0.374522789143936,0.4086032335740461,-0.08388662621541942,-0.04257169064194393
0.3352829872738374,0.4252205319136574,-0.11242864911919864,-0.028877900781073884
0.3196115531416296,0.4408611932154596,-0.13110277477598278,-0.013393305545749305
0.3352829872738374,0.4574784915550708,-0.12187446874029528,0.0034010391353427333
0.3392008458068894,0.4770257010081094,-0.10697338059612534,0.020936643490423262
0.3451082418762568,0.4956035077717671,-0.1108961817254,0.0386028475354596
0.3235294116746816,0.5131974431491875,-0.1269898927075837,0.055793179343684204
0.3235294116746816,0.5298147414887988,-0.13234030088339535,0.07194725039222755
0.3039095107396323,0.5435021287149827,-0.1403014780827237,0.08658360924606823
0.2999916522065803,0.5542523704793112,-0.1627547415707229,0.09932064213439362
0.3098169068089997,0.5640259752058304,-0.14457627128478787,0.10988470178915306
0.3098169068089997,0.5708696688189224,-0.11948191026348078,0.11810678143031514
0.2901970058739504,0.5737995799323498,-0.1987050423213557,0.12391082636681984
0.2549056708066933,0.5757600883563961,-0.18746243774588317,0.12729787003583706
0.6509766818824151,0.5767367253942053,0.2489184251172021,0.12833038920804823
1.503906727835743,0.5767367253942053,0.9248892628611332,0.12712050352276263
1.503906727835743,0.5767367253942053,1.2229353444237607,0.12382398541523292
1.462738604968908,0.5737995799323498,0.8379030114787037,0.11863985864505679
0.5058934830803345,0.5698930317811133,0.16744661095269842,0.11181324884606571
0.3294061994742595,0.5620727011302122,-0.16412417407056398,0.10363775787445537
0.3588207467419387,0.5513224593658839,-0.11328715415516818,0.09445342162879908
0.3646975345415166,0.539588346215318,-0.06157530717596852,0.08463736555208448
0.3705743223410945,0.5268848303753715,-0.09581441101675216,0.07458626513304166
0.3588207467419387,0.5151507172248058,-0.10415487663290528,0.06469202062741404
0.3352829872738374,0.5044004754604773,-0.11013873994971068,0.05531397332526597
0.3352829872738374,0.4965801448095762,-0.12456822120745445,0.046752012409547676
0.3490261004093087,0.4897364511964843,-0.10913492416217428,0.03922484954595564
0.3705743223410945,0.4848460316590105,-0.08562951421931231,0.03285670438012628
0.3803995769435139,0.479962846469965,-0.0728175486276259,0.02767402462250036
0.3999888696087737,0.4770257010081094,-0.06302278015811763,0.023612121338739335
0.3941120818091958,0.4750724269324912,-0.05978732075317818,0.020530114080836024
0.4039067281418257,0.473119152856873,-0.05423111096210642,0.018231573519869385
0.419608770543823,0.4701892417434457,-0.0396856929641265,0.016487809833386238
0.4254855583434009,0.4692053703572084,-0.03265064109044192,0.015060874463051507
0.4294034168764529,0.4672520962815901,-0.0286286349027097,0.013723907125414336
0.4549001056110801,0.4652988222059719,-0.004515137879461396,0.012277267186292967
0.4941092992113892,0.4633455481303537,0.03405324975813107,0.010559732843504747
0.5294006342786464,0.4604084026684982,0.07085976111065653,0.008454789606817543
0.5745172239483228,0.4584551285928799,0.11410661255877347,0.005892573167890165
0.6353052477502072,0.4555252174794526,0.17388857013959305,0.0028483293063354827
0.6960932715520916,0.4525880720175971,0.2387276907293806,-0.0006616934282713427
0.7607991538870279,0.4486815238663607,0.2942263016680557,-0.004586123630110496
0.7901830928849176,0.444767741366696,0.3360389224630699,-0.008845509688059212
0.8255050362219641,0.4398845561776505,0.35733709049063817,-0.013340071484253747
0.8117619230864929,0.4359707736779858,0.35365669165347136,-0.01795779934105498
0.796090488954285,0.4320642255267494,0.3330927133422856,-0.022582577051352266
0.7607991538870279,0.4271738059892756,0.2976260392596538,-0.02710200682684618
0.7058879178847215,0.4222906208002301,0.24207772364340038,-0.031414567512085566
0.6353052477502072,0.4174002012627563,0.1756631015376006,-0.03543563500024515
0.5803940117479008,0.414470290149329,0.110827975195181,-0.039101789493479075
0.5058934830803345,0.4105565076496644,0.04845200974481633,-0.04237284430179508
0.4607768934106581,0.407626596536237,-0.009435310824234829,-0.04523124654380043
0.4039067281418257,0.4066499594984279,-0.056102282864668236,-0.047678918687257474
0.3803995769435139,0.4056660881121906,-0.08822707051832857,-0.04973214975080408
0.3549028882088867,0.4046894510743815,-0.10799789846609742,-0.05141567618222439
0.3451082418762568,0.4046894510743815,-0.12170315023182134,-0.052757441846530743
0.3352829872738374,0.4037128140365724,-0.13161353647910592,-0.05378552056133994
0.3294061994742595,0.4017595399609542,-0.13476379005430322,-0.05452823476636986
0.3352829872738374,0.3998062658853359,-0.13389043188148989,-0.05501766469446133
0.3352829872738374,0.3998062658853359,-0.13101501405148092,-0.05529571940637042
0.3451082418762568,0.3988296288475269,-0.12179468466482377,-0.05542104100424729
0.3549028882088867,0.3988296288475269,-0.11304059201097588,-0.055474514269216894
0.3588207467419387,0.3988296288475269,-0.1123149854965311,-0.055561177674321616
0.3549028882088867,0.3988296288475269,-0.10766367397017071,-0.05580683730574641
0.3803995769435139,0.3988296288475269,-0.0949392519874877,-0.056348549442965995
0.3803995769435139,0.3998062658853359,-0.08563328893000036,-0.05731920825355767
0.3901942232761438,0.3978529918097178,-0.07820496728875496,-0.0588275762209786
0.4039067281418257,0.3958924833856713,-0.07044990157601783,-0.060936034933547774
0.3941120818091958,0.3939392093100531,-0.07115957226193827,-0.0636389568957212
0.3999888696087737,0.3919859352344348,-0.07527681073005343,-0.06684484881399344
0.3941120818091958,0.3890487897725793,-0.07279268576384501,-0.07036532045953112
0.4039067281418257,0.386118878659152,-0.07133366009634444,-0.07391350719906917
0.3901942232761438,0.3831889675457247,-0.07871666964765898,-0.07711378863160437
0.3803995769435139,0.3812284591216783,-0.09258960606943176,-0.07952349387780602
0.3646975345415166,0.37927518504606,-0.10859738653097548,-0.08066584678978654
0.3588207467419387,0.3802518220838691,-0.11256853061904601,-0.08007183918655822
0.3803995769435139,0.3822123305079156,-0.09366323450235384,-0.07732722164903873
0.3999888696087737,0.3851422416213429,-0.07200694702283103,-0.07211957301060337
0.4098141242111931,0.3910092981966258,-0.06754091736205924,-0.06427965413716719
0.3999888696087737,0.400782902923145,-0.06830645297740014,-0.053811184432568465
0.4098141242111931,0.4134864187630917,-0.07000880527103749,-0.04090401860258472
0.3843174354765659,0.4301109514511312,-0.08851871825387261,-0.025927560163881546
0.3549028882088867,0.4496581609041697,-0.11742899308852524,-0.009403990374583235
0.3490261004093087,0.4711658787812548,-0.13215287952751342,0.008035917163309165
0.3451082418762568,0.4916897252721025,-0.1240790224605915,0.025708634303171614
0.374522789143936,0.5102675320357603,-0.10740249417682347,0.04293752148684315
0.3646975345415166,0.5268848303753715,-0.10535537499481211,0.059107804475790254
0.3705743223410945,0.5405649832531272,-0.11332361095496665,0.07370944496285543
0.3588207467419387,0.5513224593658839,-0.11260337889792718,0.0863629163799738
0.3451082418762568,0.5591427900167849,-0.12871571046662386,0.09682619588093332
0.3392008458068894,0.5650026122436396,-0.1532011167280304,0.10498471226411349
0.3392008458068894,0.5689163947433042,-0.12372069945727344,0.11082884177482409
0.3392008458068894,0.5728229428945406,-0.13029697509613702,0.11442525905178526
0.274494963471953,0.5747834513185871,-0.2477681445983928,0.11588873163814875
0.2647003171393232,0.5757600883563961,-0.15183886636125063,0.11535983343978097
0.9411736877563656,0.5757600883563961,0.4179548355421158,0.11299190197764136
1.503906727835743,0.5747834513185871,1.0272031579731071,0.10894792938465121
1.503906727835743,0.5708696688189224,1.064362047788686,0.10340555826692654
1.1058767874934952,0.5650026122436396,0.562037161382041,0.09656648282057206
0.4803967943457073,0.5581589186305476,0.06382565695598036,0.08866569700931194
0.419608770543823,0.5483853139040282,-0.09980685022210538,0.079976292332314
0.3843174354765659,0.5376350721396999,-0.086905754359023,0.07080672328718263
0.3549028882088867,0.5288381044509897,-0.11633582533255463,0.0614892670687845
0.3294061994742595,0.5200411367622795,-0.16125807016293475,0.05236035839743087
0.3196115531416296,0.5092836606495229,-0.15979824409840848,0.043735186159480646
0.3294061994742595,0.5004866929608127,-0.14569525669296624,0.03588016422283041
0.3490261004093087,0.4936429993477207,-0.14018668336176943,0.02898753327653753
0.3451082418762568,0.487783177120866,-0.13119076170829302,0.023156327219849764
0.3646975345415166,0.4828927575833923,-0.1177410254471915,0.018383180127861748
0.374522789143936,0.4809394835077741,-0.10967992966215295,0.014565024288592314
0.3705743223410945,0.479962846469965,-0.10847131063715013,0.011513863472758169
0.3803995769435139,0.4789862094321558,-0.1034607151731987,0.008981823494391446
0.3901942232761438,0.4789862094321558,-0.09170096786247157,0.00669295761613205
0.4039067281418257,0.4770257010081094,-0.07869291615458156,0.004377181580415433
0.419608770543823,0.4740957898946821,-0.06271795185670648,0.0018014788851983157
0.4392286714788723,0.4711658787812548,-0.04300901481294962,-0.0012058135310453505
0.46469475194371,0.466275459243781,-0.02056644576610492,-0.00474044697844348
0.4901914406783372,0.4613850397063073,0.011270299174415183,-0.008818489961964122
0.5392258888810657,0.4565018545172618,0.05270748274575828,-0.01338267543749215
0.5803940117479008,0.451611434979788,0.09730350090570161,-0.018316810004223267
0.6254799931477878,0.4467282497907424,0.1465677694129836,-0.02346534151618181
0.6862680169496722,0.4418378302532686,0.195519478556885,-0.02865492062130392
0.7058879178847215,0.4369474107157949,0.2301856860969419,-0.0337150306390645
0.7411792529519786,0.4330408625645585,0.2517890855939718,-0.038495351883804055
0.7509738992846084,0.4301109514511312,0.2707142769496558,-0.042878325555940976
0.7666759416866058,0.4261971689514665,0.2818174039721873,-0.04678625288076805
0.7509738992846084,0.4232672578380392,0.26780297785009705,-0.05018306597514831
0.7098057764177734,0.4213067494139927,0.2251802969294398,-0.05307151400712259
0.654894540415467,0.4193534753383746,0.17280130090719442,-0.05548686411806048
0.60980855901558,0.4164235642249472,0.12444634026218102,-0.057488331732537104
0.5548973230132735,0.414470290149329,0.0720253654028051,-0.05914937015848814
0.4941092992113892,0.4134864187630917,0.010388854424616824,-0.06054773873455588
0.4392286714788723,0.4125097817252826,-0.0452874828337761,-0.06175605434111984
0.4039067281418257,0.4115331446874735,-0.07846679720249482,-0.0628334245646797
0.3941120818091958,0.4115331446874735,-0.09157232130619772,-0.06381878205933679
0.3803995769435139,0.4115331446874735,-0.10049695811795951,-0.06472661980556688
0.374522789143936,0.4115331446874735,-0.11286697586037901,-0.0655458668279586
0.3588207467419387,0.4115331446874735,-0.12029964642534474,-0.06624254429793039
0.3705743223410945,0.4115331446874735,-0.1175730427322092,-0.06676651800209848
0.3646975345415166,0.4105565076496644,-0.1144316714758438,-0.06706208001657792
0.3705743223410945,0.4095798706118552,-0.11677721309759041,-0.06708130073466825
0.3646975345415166,0.4095798706118552,-0.11523155367112306,-0.0667982392736383
0.3803995769435139,0.4095798706118552,-0.10531991336362573,-0.06622140622295015
0.3843174354765659,0.4095798706118552,-0.0971674999744643,-0.06540156073334923
0.3901942232761438,0.4095798706118552,-0.09401867797827282,-0.06443213629000039
0.3941120818091958,0.4105565076496644,-0.08798079956998064,-0.06344036615883543
0.3999888696087737,0.4105565076496644,-0.08243562998466936,-0.06256849427226213
0.3999888696087737,0.414470290149329,-0.08485826746981062,-0.0619462297701428
0.3941120818091958,0.4193534753383746,-0.08491037355798506,-0.06165764910771175
0.4098141242111931,0.4213067494139927,-0.07557307610083105,-0.061707702483550245
0.4098141242111931,0.4222906208002301,-0.07109434899976956,-0.06199478409781219
0.4039067281418257,0.4222906208002301,-0.07766157090059465,-0.06229591356005326
0.3999888696087737,0.4222906208002301,-0.08328031052392582,-0.062269690844199393
0.3941120818091958,0.4222906208002301,-0.08576137537455333,-0.06147953134774223
0.3901942232761438,0.4222906208002301,-0.0930975470164234,-0.059436278571229476
0.3803995769435139,0.4232672578380392,-0.09948141626982578,-0.05565573508547752
0.3901942232761438,0.4252205319136574,-0.09149732799966012,-0.04972354027713801
0.4098141242111931,0.4301109514511312,-0.07101278622100152,-0.04135773239890536
0.4294034168764529,0.4408611932154596,-0.05120182186854883,-0.03045878971479594
0.4392286714788723,0.4555252174794526,-0.04100257967266194,-0.017138298494065354
0.4352802046760309,0.4740957898946821,-0.04484334014735323,-0.0017206164136609877
0.419608770543823,0.4956035077717671,-0.061241027026501256,0.015283541574443223
0.3999888696087737,0.5180806283382331,-0.07754271613733171,0.03322772009152816
0.4039067281418257,0.539588346215318,-0.07841052516435429,0.05139642577868286
0.4156909120107711,0.5581589186305476,-0.06054427147098446,0.06907719936146584
0.4392286714788723,0.5728229428945406,-0.04226578025862539,0.0856269299216732
0.4294034168764529,0.5855336930829155,-0.045680498784421326,0.10052305849200714
0.4294034168764529,0.5962839348472438,-0.05447536478728701,0.11339372200166266
0.4254855583434009,0.605080902535954,-0.047010255240646386,0.12402500604775243
0.419608770543823,0.6129012331868552,-0.05666433313249111,0.1323473697642858
0.4156909120107711,0.6177916527243289,-0.07427517600300841,0.1384063126945033
0.4254855583434009,0.6197449267999471,-0.03732813026206879,0.14232416981660545
0.4294034168764529,0.6207215638377562,-0.040850497405275646,0.14426051158770506
0.3646975345415166,0.6216982008755654,-0.15307692242803267,0.14437806399199013
0.3549028882088867,0.6216982008755654,-0.05954359093691561,0.14281945949261401
0.99216706522562,0.6207215638377562,0.47026662590312096,0.13969770496028225
1.503906727835743,0.6177916527243289,1.031019246312209,0.13510042880836096
1.503906727835743,0.6129012331868552,1.0729142914550296,0.12910530752513338
1.1470449103603302,0.6070414109600005,0.601856571671635,0.12180208211730613
0.5098113416133866,0.5992210803090994,0.10130359537687125,0.11331556376557268
0.4352802046760309,0.5894402412341518,-0.07443815994444564,0.10382407164628078
0.4254855583434009,0.5796666365076326,-0.04588266773789073,0.09356874908182694
0.4039067281418257,0.5679397577054951,-0.05506857367874628,0.08285095644481949
0.3843174354765659,0.5552290075171202,-0.09901268981214544,0.07201714983768519
0.3646975345415166,0.5425254916771737,-0.1088782630993539,0.06143298090723061
0.3588207467419387,0.5307913785266078,-0.10450548018026369,0.05145041536947874
0.3803995769435139,0.5210177738000886,-0.09982553079494282,0.04237307401488212
0.374522789143936,0.5131974431491875,-0.09226937257957213,0.034425437379154065
0.3843174354765659,0.5073303865739046,-0.08736766487233213,0.027730917857208492
0.3901942232761438,0.5024472013848591,-0.08029825224283105,0.02230224885632284
0.3999888696087737,0.4995100559230035,-0.07076732220115371,0.01804552868417435
0.4039067281418257,0.4985334188851945,-0.06372913818813694,0.01477701668947961
0.419608770543823,0.4965801448095762,-0.0523840981529316,0.01224980621258273
0.4294034168764529,0.494626870733958,-0.03599992474419689,0.010186113765038111
0.4451054592784502,0.4936429993477207,-0.026183793814124903,0.008310338802302765
0.4490233178115022,0.4916897252721025,-0.017485305182276836,0.006378310912936307
0.4745200065461294,0.487783177120866,0.007674273087372203,0.0041991280258805155
0.5098113416133866,0.4838693946212014,0.041503879821572734,0.0016474737248182159
0.5353080303480138,0.479962846469965,0.06891230577343829,-0.0013340020051724182
0.5705993654152709,0.4760490639703003,0.10554759032916483,-0.0047410812801440575
0.6293978516808398,0.4721425158190639,0.16265978370907716,-0.00852085645833565
0.6803912291500942,0.4682287333193992,0.21504846336918937,-0.012588234161517676
0.7098057764177734,0.4643221851681628,0.24564504194537495,-0.016843214679994573
0.7313846066193487,0.459431765630689,0.26656866940025437,-0.021186507646897616
0.7450971114850305,0.4555252174794526,0.2813970951673785,-0.025531690463760272
0.7450971114850305,0.451611434979788,0.2806710035193201,-0.029812858573114963
0.7254772105499813,0.4477048868285516,0.2641788257360097,-0.03398746746497428
0.6960932715520916,0.4437911043288869,0.23168840440948915,-0.038034753522024144
0.6411820355497851,0.4408611932154596,0.1798209171752274,-0.04195066415757997
0.5803940117479008,0.4359707736779858,0.11857659623292763,-0.04574055312714551
0.5196059879460164,0.4310875884889403,0.05878104962155567,-0.049410968671496754
0.4607768934106581,0.4271738059892756,-0.0018519829720121568,-0.05296171444927153
0.3999888696087737,0.4242438948758483,-0.05765246766837445,-0.05637911811989837
0.3705743223410945,0.4213067494139927,-0.09233828549889883,-0.059631255535559764
0.3490261004093087,0.4183768383005654,-0.10823903596416558,-0.06266581665565414
0.3352829872738374,0.4174002012627563,-0.12495533761416758,-0.06541128335636544
0.3137347653420516,0.414470290149329,-0.14525481117739658,-0.06778196570911676
0.3039095107396323,0.4125097817252826,-0.15315663295458845,-0.0696870839440287
0.3098169068089997,0.4095798706118552,-0.14881614960360645,-0.07104344163879445
0.3098169068089997,0.407626596536237,-0.14792201526059862,-0.07179038763555741
0.3098169068089997,0.4066499594984279,-0.14638713387175895,-0.07190492044975913
0.3235294116746816,0.4066499594984279,-0.13294493721459247,-0.07141422392813576
0.3352829872738374,0.4066499594984279,-0.12209171443419266,-0.07040285083080022
0.3294061994742595,0.4086032335740461,-0.12456107121649246,-0.06901226343146483
0.3352829872738374,0.4105565076496644,-0.1223545907994559,-0.06743142910240128
0.3392008458068894,0.4125097817252826,-0.11178176205440943,-0.06587849070729715
0.3490261004093087,0.414470290149329,-0.11108419202309229,-0.06457496211656866
0.3352829872738374,0.4154469271871381,-0.11403687596764892,-0.06371519239074877
0.3451082418762568,0.4164235642249472,-0.10928170996398104,-0.0634347911227991
0.3451082418762568,0.4164235642249472,-0.1119325130100332,-0.06378218528792877
0.3294061994742595,0.4154469271871381,-0.11946532637364754,-0.0646974330462572
0.3352829872738374,0.414470290149329,-0.11689117790202255,-0.06600185372546176
0.3352829872738374,0.4134864187630917,-0.12231518362940633,-0.06740099237693484
0.3098169068089997,0.4115331446874735,-0.13593125625793687,-0.06850201106269076
0.3294061994742595,0.4105565076496644,-0.12399444618100743,-0.06884490862452522
0.3549028882088867,0.4105565076496644,-0.09908559908453413,-0.0679451711031196
0.3490261004093087,0.4115331446874735,-0.09658968132977332,-0.06534375146538546
0.3549028882088867,0.414470290149329,-0.10085008467372965,-0.06065891521842812
0.3490261004093087,0.4203301123761837,-0.09513653843094005,-0.05363370991089167
0.3549028882088867,0.4281504430270847,-0.10156446579465869,-0.044172819590017565
0.3196115531416296,0.4389079191398414,-0.12408153587006698,-0.03236346949297382
0.3098169068089997,0.4535647090554062,-0.1407426532104574,-0.018476855244240715
0.3098169068089997,0.4721425158190639,-0.14281256917122184,-0.002949142472060608
0.3098169068089997,0.4916897252721025,-0.13210280728475368,0.013655907215063759
0.3294061994742595,0.5102675320357603,-0.123085096152663,0.030697713741433156
0.3196115531416296,0.5288381044509897,-0.12853778067501917,0.047515929621682045
0.3196115531416296,0.5444787657527919,-0.12555040385196975,0.06348577514208857
0.3294061994742595,0.5581589186305476,-0.11869459143569387,0.07806431490136806
0.2999916522065803,0.5689163947433042,-0.14478557330505892,0.0908223033354707
0.3137347653420516,0.5767367253942053,-0.14712233473618316,0.10145905354950244
0.3137347653420516,0.5835804190072973,-0.10288798796610975,0.10980085358473858
0.3235294116746816,0.5884636041963428,-0.14960836326517657,0.1157861472073963
0.2588235293397452,0.5894402412341518,-0.1989098693191237,0.11944252831027288
0.4941092992113892,0.590416878271961,0.12234050853778,0.12086131711171408
1.3568645997671365,0.590416878271961,0.7846613205499138,0.12017506290081706
1.503906727835743,0.5894402412341518,1.2005814177260306,0.11754188364409004
1.503906727835743,0.5865103301207246,0.9459360745768259,0.11313839830497172
0.6803912291500942,0.5826037819694881,0.2884763093417637,0.1071606010115949
0.2999916522065803,0.5767367253942053,-0.139032099584475,0.09982992037658822
0.3294061994742595,0.5698930317811133,-0.1479692730005844,0.09140037217739762
0.3352829872738374,0.560119427054594,-0.08484489989756881,0.08216242623471068
0.3137347653420516,0.5483853139040282,-0.1331433689749378,0.07244002452532436
0.2843202180743724,0.5366584351018908,-0.16937110577361994,0.06257892648702441
0.2843202180743724,0.523947684913516,-0.15174558489137452,0.052926797696603474
0.3098169068089997,0.5131974431491875,-0.13456591356698727,0.043807617359721655
0.3196115531416296,0.5053771124982864,-0.12796335113136934,0.03549449264699852
0.3137347653420516,0.4985334188851945,-0.126528572860743,0.028185478038747477
0.3196115531416296,0.4926663623099116,-0.12432004237279379,0.021986478540244804
0.3294061994742595,0.4868065400830569,-0.11509945637915504,0.016904046519119427
0.3392008458068894,0.4828927575833923,-0.10352205200985548,0.012849267571300187
0.3549028882088867,0.4809394835077741,-0.08782906231575674,0.009652284171989801
0.374522789143936,0.479962846469965,-0.06857712413681595,0.007085488657633459
0.3901942232761438,0.4789862094321558,-0.054766698805906455,0.0048921563772723374
0.4039067281418257,0.4780023380459186,-0.036065989966240324,0.002816486877628946
0.4451054592784502,0.4740957898946821,-5.286368447764318e-05,0.0006309054398614403
0.4803967943457073,0.4701892417434457,0.03764688194781228,-0.0018428469224698086
0.5098113416133866,0.466275459243781,0.06780920273341778,-0.0047209807703459585
0.5509794644802216,0.4623689110925446,0.10747706457462891,-0.00805381887188672
0.605890700482528,0.4574784915550708,0.16262405349654782,-0.01182991970920263
0.6607713282150449,0.4525880720175971,0.218695252669301,-0.015986205587006978
0.7098057764177734,0.4486815238663607,0.26608388881830336,-0.02042165057808196
0.7450971114850305,0.444767741366696,0.30254562221312714,-0.025012111445436275
0.7666759416866058,0.4408611932154596,0.3237127911742869,-0.029624319223510602
0.7705938002196577,0.4359707736779858,0.3269073677496786,-0.03412770261189558
0.7548917578176605,0.4310875884889403,0.31297393843400323,-0.03840336502520833
0.7254772105499813,0.4271738059892756,0.28089311557142593,-0.04235003866297801
0.6705965828174644,0.4242438948758483,0.22832101200602883,-0.04588718346066814
0.6000139126829501,0.4213067494139927,0.15673810351007506,-0.048955656288821446
0.5196059879460164,0.4183768383005654,0.07491619762132584,-0.051516579177997505
0.4392286714788723,0.4164235642249472,-0.0023605270679814584,-0.05354914474904025
0.3803995769435139,0.414470290149329,-0.06496748317954239,-0.05504806782350794
0.3294061994742595,0.4134864187630917,-0.11355423503234344,-0.05602123982480235
0.2941148644070023,0.4125097817252826,-0.14957397103985554,-0.05648792944301705
0.274494963471953,0.4125097817252826,-0.17044389998615678,-0.05647766189229552
0.2647003171393232,0.4134864187630917,-0.1783896638850756,-0.05602974136864619
0.2647003171393232,0.4134864187630917,-0.1803885649461866,-0.05519327303399897
0.2686181756723751,0.414470290149329,-0.17588682920063198,-0.05402748120411308
0.2843202180743724,0.4164235642249472,-0.15990175705897025,-0.05260209037294514
0.3039095107396323,0.4183768383005654,-0.14106556571133452,-0.05099753438808757
0.3137347653420516,0.4203301123761837,-0.13193328333539842,-0.04930478752603085
0.3196115531416296,0.4222906208002301,-0.12550644820538806,-0.04762463016943201
0.3294061994742595,0.4222906208002301,-0.11385063617861654,-0.046066104007826625
0.3451082418762568,0.4232672578380392,-0.10580279146265646,-0.044743754358712216
0.3392008458068894,0.4232672578380392,-0.10030539655419204,-0.043773075860562935
0.3646975345415166,0.4232672578380392,-0.08608899506825603,-0.04326352481811924
0.374522789143936,0.4232672578380392,-0.07112735402255055,-0.04330868120142963
0.374522789143936,0.4242438948758483,-0.06876960986557264,-0.04397368671282253
0.3803995769435139,0.4232672578380392,-0.07284417949161011,-0.045280873273567945
0.3646975345415166,0.4222906208002301,-0.07510939461806511,-0.04719533001589025
0.3705743223410945,0.4203301123761837,-0.0830312723759964,-0.049612779930639936
0.3451082418762568,0.4174002012627563,-0.09927181360597168,-0.05235234308988913
0.3392008458068894,0.4154469271871381,-0.10977868868576904,-0.05515647563585219
0.3352829872738374,0.4125097817252826,-0.1123186560794359,-0.05769964086782784
0.3352829872738374,0.4095798706118552,-0.11555134747355916,-0.05960620691591896
0.3392008458068894,0.4086032335740461,-0.1066333792197255,-0.06047682041418389
0.3705743223410945,0.4095798706118552,-0.08087005906724212,-0.05992125015763567
0.3803995769435139,0.4105565076496644,-0.0678172211931219,-0.05759461201061739
0.3803995769435139,0.4134864187630917,-0.0727467639431125,-0.05323311664678026
0.3705743223410945,0.4193534753383746,-0.07250168386767142,-0.04668511166692395
0.3803995769435139,0.4271738059892756,-0.07909844804408266,-0.037933310307903714
0.3392008458068894,0.4369474107157949,-0.10640432560189796,-0.02710481862546991
0.3235294116746816,0.4506347979419788,-0.12612979313798453,-0.014466937803457355
0.3352829872738374,0.4672520962815901,-0.12265428492144897,-0.0004086395662391188
0.3392008458068894,0.4858226686968196,-0.10815779577824297,0.014590159663273407
0.3549028882088867,0.5034238384226682,-0.09603980248137142,0.02999729721477281
0.3588207467419387,0.5200411367622795,-0.09902968823799276,0.045269390343143597
0.3490261004093087,0.5337212896400352,-0.10377405378740018,0.05988931064593603
0.3352829872738374,0.5435021287149827,-0.10832277678812025,0.07339534734554348
0.3294061994742595,0.553275733441502,-0.13690846460238157,0.0853994941940701
0.3294061994742595,0.5620727011302122,-0.1298973786912804,0.09559490117056148
0.3392008458068894,0.5698930317811133,-0.08136380481764147,0.10375476383606382
0.3549028882088867,0.5757600883563961,-0.14389163350045334,0.10972620153338775
0.2686181756723751,0.5796666365076326,-0.18090562190733803,0.11342283660168324
0.5960654458801087,0.5826037819694881,0.21071351946742792,0.11481902757815131
1.503906727835743,0.5816199105832508,0.9014929059476772,0.11394738743817942
1.503906727835743,0.5806432735454417,1.2295923873974837,0.11089969900785893
1.503906727835743,0.5777133624320144,0.881208663914065,0.10582994284718057
0.605890700482528,0.5708696688189224,0.2538552733801912,0.09895714308690239
0.4098141242111931,0.5620727011302122,-0.0819389014310034,0.0905653224522093
0.3941120818091958,0.5522990964036929,-0.0780293818719327,0.08099814281121674
0.374522789143936,0.5425254916771737,-0.06284731733975288,0.0706467096066025
0.3490261004093087,0.5307913785266078,-0.11549803248832904,0.05993028443867189
0.3490261004093087,0.5190644997244704,-0.12119362971369331,0.04927099847398913
0.3451082418762568,0.5083070236117138,-0.10193021648393749,0.03906487911162892
0.3588207467419387,0.4975567818473854,-0.10794174542936365,0.029652420482591993
0.3549028882088867,0.4897364511964843,-0.10881550357434254,0.021292373228615644
0.3646975345415166,0.4828927575833923,-0.0896828224002245,0.014142281592708122
0.3901942232761438,0.4770257010081094,-0.07757761188457506,0.008248563292920102
0.3803995769435139,0.4721425158190639,-0.08132351449632044,0.003547752643671297
0.3843174354765659,0.4692053703572084,-0.07565034258656785,-0.00012088054030294549
0.4039067281418257,0.4672520962815901,-0.060397532323979056,-0.0029925776194941944
0.4098141242111931,0.466275459243781,-0.05923440438912492,-0.005346801668101282
0.4039067281418257,0.466275459243781,-0.050449965015447976,-0.007473117636745628
0.4607768934106581,0.4643221851681628,-0.012159417297636697,-0.009637608517853394
0.4843146528787593,0.4623689110925446,0.02141302132691314,-0.012054209974759644
0.4999860870109672,0.4584551285928799,0.03680469801912549,-0.014864618544419303
0.5294006342786464,0.4545485804416435,0.06168804735329861,-0.01812904321821131
0.5705993654152709,0.4496581609041697,0.10133729433140357,-0.021828300209220608
0.60980855901558,0.444767741366696,0.14967748100408906,-0.025875965532751045
0.6803912291500942,0.4398845561776505,0.20575557696138108,-0.030137844134715833
0.7156825642173513,0.4349941366401767,0.2528307619386299,-0.03445512615898059
0.7509738992846084,0.4310875884889403,0.2805987618575736,-0.0386673873713265
0.7666759416866058,0.4271738059892756,0.29858811765180104,-0.04263203539533631
0.7764705880192357,0.4252205319136574,0.3072719922249793,-0.046237786675703545
0.7666759416866058,0.4232672578380392,0.29696964472906456,-0.049411077877493687
0.7353024651524006,0.4222906208002301,0.2659938488665573,-0.05211570272886193
0.6901858754827241,0.4203301123761837,0.21856971880395204,-0.054347125069074645
0.6293978516808398,0.4174002012627563,0.16008072420375458,-0.056123598812730935
0.5705993654152709,0.4154469271871381,0.09785320743181114,-0.057476320323723365
0.5098113416133866,0.414470290149329,0.03960259220330334,-0.058440456025297065
0.46469475194371,0.414470290149329,-0.009272773111148536,-0.059048292503489266
0.419608770543823,0.414470290149329,-0.050114404042453146,-0.059325198358636484
0.3901942232761438,0.414470290149329,-0.08628092126576027,-0.059288660057805365
0.3588207467419387,0.414470290149329,-0.11130578759561474,-0.0589503081903612
0.3549028882088867,0.4154469271871381,-0.12038388826068806,-0.05832051789890133
0.3490261004093087,0.4164235642249472,-0.12555357194813513,-0.05741484869718203
0.3392008458068894,0.4183768383005654,-0.1336363922610962,-0.05626133296822935
0.3451082418762568,0.4193534753383746,-0.1319046366959879,-0.054907456993015184
0.3549028882088867,0.4203301123761837,-0.11842007691675395,-0.0534255863693225
0.3646975345415166,0.4213067494139927,-0.11230542045374792,-0.051915550928389204
0.3588207467419387,0.4232672578380392,-0.11745598365648369,-0.05050315787614717
0.3588207467419387,0.4232672578380392,-0.11582926837764596,-0.04933362700126867
0.374522789143936,0.4242438948758483,-0.10448587824237059,-0.048559399227155256
0.3803995769435139,0.4242438948758483,-0.09568264314972166,-0.04832245848833161
0.3901942232761438,0.4242438948758483,-0.08714436930267858,-0.04873218292263981
0.4039067281418257,0.4242438948758483,-0.07435736501153384,-0.04984073414375929
0.4098141242111931,0.4242438948758483,-0.06903726726041447,-0.051618982500621274
0.3999888696087737,0.4232672578380392,-0.07686348032207492,-0.0539367607196866
0.3941120818091958,0.4222906208002301,-0.08698348621512156,-0.05655159636000945
0.3843174354765659,0.4203301123761837,-0.09309646685637561,-0.059109765925873414
0.3803995769435139,0.4193534753383746,-0.1000723949907503,-0.06116240839848159
0.3705743223410945,0.4174002012627563,-0.1095861505715811,-0.0621975568622783
0.3646975345415166,0.4154469271871381,-0.11431723445978853,-0.06168648066741111
0.374522789143936,0.4154469271871381,-0.10721058707704889,-0.05914001891304001
0.3901942232761438,0.4174002012627563,-0.09050270635544379,-0.054168119186765396
0.4039067281418257,0.4222906208002301,-0.07516749228218284,-0.04653415379521427
0.4156909120107711,0.4310875884889403,-0.06977213239328975,-0.03619529285344106
0.4039067281418257,0.444767741366696,-0.07314290107810437,-0.023321569723592006
0.3999888696087737,0.4633455481303537,-0.08437134532751135,-0.008289245757752075
0.3803995769435139,0.4848460316590105,-0.103450825151932,0.008351755847451839
0.3549028882088867,0.5073303865739046,-0.12219578090881938,0.025932031511117185
0.3549028882088867,0.5268848303753715,-0.13370485955003772,0.04373029914087701
0.3490261004093087,0.5444787657527919,-0.1306128727129279,0.06104399017131604
0.374522789143936,0.5591427900167849,-0.10897603838531089,0.07725234992818684
0.3843174354765659,0.5698930317811133,-0.09823193230727424,0.09186358880162258
0.3705743223410945,0.5816199105832508,-0.1169455456700388,0.1045410466757532
0.3490261004093087,0.5914007496581983,-0.13129912261685028,0.11510719596290263
0.3392008458068894,0.5992210803090994,-0.1388839850255621,0.12352775202885379
0.3549028882088867,0.605080902535954,-0.14796791878382712,0.12988067694901784
0.3490261004093087,0.6080180479978096,-0.11643687754066916,0.13431633803675325
0.3588207467419387,0.6099713220734279,-0.12169677451017503,0.1370156090905398
0.2784434302747945,0.6109479591112369,-0.2434442729608532,0.1381523776947935
0.2647003171393232,0.611924596149046,-0.1675807405592817,0.1378658023616724
0.9215537868213162,0.6099713220734279,0.39944731900152786,0.13624585179119922
1.503906727835743,0.6080180479978096,1.0237487340421763,0.1333333867105492
1.503906727835743,0.6060575395737632,1.04299139262186,0.12913364409001227
1.041170905158559,0.6021509914225267,0.5129170937789032,0.12363979185646083
0.4706021480130775,0.597260571885053,0.032438498156244125,0.11686154731189625
0.4156909120107711,0.590416878271961,-0.10516123348391393,0.108852984209146
0.3803995769435139,0.5806432735454417,-0.09136408146794196,0.09973381517291632
0.374522789143936,0.5689163947433042,-0.10956798798288893,0.08969967438137308
0.3490261004093087,0.5571822815927384,-0.13999570755365098,0.07901903510256512
0.3352829872738374,0.5444787657527919,-0.15482139268267348,0.06801694325267234
0.3196115531416296,0.5307913785266078,-0.15701741140613404,0.057048192518930195
0.3490261004093087,0.5190644997244704,-0.1429662244166681,0.04646442642460697
0.3549028882088867,0.5092836606495229,-0.13396166306143187,0.03658059395411478
0.3451082418762568,0.5014633299986218,-0.13161051542265606,0.027646051259037713
0.3803995769435139,0.494626870733958,-0.11457258265698927,0.019824462390864606
0.3843174354765659,0.4887598141586752,-0.09829683957459018,0.013184829000774105
0.3901942232761438,0.4848460316590105,-0.09449698524274348,0.00770394228985302
0.4039067281418257,0.4809394835077741,-0.08465470408091455,0.003278735185741048
0.4156909120107711,0.4780023380459186,-0.06955255613747136,-0.00025429084535890696
0.4254855583434009,0.4750724269324912,-0.059894761072088465,-0.003096039892777959
0.4392286714788723,0.4721425158190639,-0.04701135126740631,-0.005461652927776315
0.46469475194371,0.4692053703572084,-0.022698848862456607,-0.007560065766857836
0.4941092992113892,0.4672520962815901,0.011038513897522879,-0.009578203631067917
0.5392258888810657,0.4633455481303537,0.050908378908158546,-0.011670626210133341
0.5803940117479008,0.4604084026684982,0.09507058997671171,-0.013954421157294
0.6254799931477878,0.4574784915550708,0.1421733384799119,-0.01650837605280353
0.6764733706170423,0.4545485804416435,0.18684045234174307,-0.019375058316242543
0.7058879178847215,0.4525880720175971,0.22425794003143903,-0.022564448607755867
0.7411792529519786,0.4496581609041697,0.25386667790269696,-0.026058138932486454
0.7548917578176605,0.4467282497907424,0.269760126777584,-0.029813634102274746
0.7509738992846084,0.4418378302532686,0.2666644679686063,-0.03376874658625635
0.7353024651524006,0.4369474107157949,0.24983597240614358,-0.03784627326182284
0.7058879178847215,0.4330408625645585,0.22118639004748109,-0.041959061482114424
0.6607713282150449,0.4281504430270847,0.17635101839443496,-0.04601533517582874
0.605890700482528,0.4242438948758483,0.12103051427241557,-0.049923931727838336
0.5509794644802216,0.4203301123761837,0.0676068129181177,-0.05359900457169356
0.5058934830803345,0.4164235642249472,0.02042264051717508,-0.0569637928506871
0.4607768934106581,0.4134864187630917,-0.021555227058515487,-0.059953222624424436
0.4294034168764529,0.4115331446874735,-0.05523061129902414,-0.06251535106787649
0.4098141242111931,0.4095798706118552,-0.0738272212094448,-0.06461195430461128
0.4039067281418257,0.4086032335740461,-0.07807556326700718,-0.06621882072913425
0.4039067281418257,0.407626596536237,-0.08016988652726377,-0.06732644447375324
0.3999888696087737,0.407626596536237,-0.08336184585118608,-0.06794172359620178
0.4039067281418257,0.4056660881121906,-0.07593480674871105,-0.06809091040459457
0.4254855583434009,0.4046894510743815,-0.060011348729704234,-0.06782346990716077
0.4294034168764529,0.4046894510743815,-0.05069483939022851,-0.06721580871294976
0.4352802046760309,0.4037128140365724,-0.046175487644272525,-0.06637326692325883
0.4451054592784502,0.4046894510743815,-0.037747811220705196,-0.06542855916716621
0.4490233178115022,0.4056660881121906,-0.03090338489886321,-0.06453514859230787
0.4490233178115022,0.407626596536237,-0.031993444360272225,-0.0638548266213349
0.4451054592784502,0.4086032335740461,-0.03595121592007296,-0.06353989012067274
0.4451054592784502,0.407626596536237,-0.03478092265517644,-0.06371148296969614
0.4490233178115022,0.407626596536237,-0.03019666880704579,-0.06443661039373623
0.4490233178115022,0.4056660881121906,-0.031921255924656874,-0.06570686146213175
0.4392286714788723,0.4037128140365724,-0.039175143080656206,-0.0674219684064676
0.4352802046760309,0.4027361769987633,-0.04279348231584511,-0.06938106813942514
0.4352802046760309,0.400782902923145,-0.04522218728970834,-0.0712839924295906
0.4254855583434009,0.400782902923145,-0.05140464269228749,-0.07274413306721214
0.419608770543823,0.3998062658853359,-0.05726592191768814,-0.07331338840151841
0.419608770543823,0.3998062658853359,-0.060711434140583796,-0.0725183635657363
0.4156909120107711,0.400782902923145,-0.058661133366190395,-0.06990539794244072
0.4294034168764529,0.4037128140365724,-0.04787398696606169,-0.06509029695156274
0.4392286714788723,0.4086032335740461,-0.038636778424165075,-0.057807161903711574
0.4352802046760309,0.4164235642249472,-0.039091093239699275,-0.04794981763301746
0.4294034168764529,0.4261971689514665,-0.045340482621157016,-0.035599363177705366
0.419608770543823,0.4408611932154596,-0.05900935502154289,-0.021032519460723716
0.3901942232761438,0.459431765630689,-0.0802643449117067,-0.004707744222519823
0.3803995769435139,0.479962846469965,-0.09624498249916373,0.012770692902815784
0.3803995769435139,0.5004866929608127,-0.09428003829326355,0.03070686032951551
0.3941120818091958,0.5200411367622795,-0.07696177470519734,0.048378473524671464
0.4039067281418257,0.538611709177509,-0.070025181561484,0.06510418829814989
0.3901942232761438,0.5542523704793112,-0.08416696104627305,0.08030323368021816
0.3843174354765659,0.5659792492814486,-0.08700527142377605,0.09353901355405038
0.3803995769435139,0.5737995799323498,-0.08694926860105376,0.10454108011049497
0.3588207467419387,0.5806432735454417,-0.11813421452412141,0.11320363545298744
0.3646975345415166,0.5835804190072973,-0.11466879686146074,0.11956272685560117
0.3588207467419387,0.5845570560451063,-0.07690208803497378,0.12375778998281486
0.374522789143936,0.5855336930829155,-0.14238273524433726,0.12598552608898075
0.2941148644070023,0.5855336930829155,-0.1584223990020759,0.1264548916690316
0.6509766818824151,0.5845570560451063,0.23636212286690467,0.12535113939358572
1.503906727835743,0.5835804190072973,0.9008592489106256,0.12281459128253003
1.503906727835743,0.5816199105832508,1.21873794091873,0.11893663369589187
1.503906727835743,0.5786899994698235,0.860447463437263,0.11377193304624998
0.5509794644802216,0.5737995799323498,0.19894877076399198,0.10736272817184947
0.3588207467419387,0.5689163947433042,-0.14249016281470156,0.09976881711495784
0.3803995769435139,0.560119427054594,-0.10698950058509282,0.09109590953600519
0.3549028882088867,0.5503385879796465,-0.07984929071806086,0.08151552603719421
0.3392008458068894,0.5366584351018908,-0.13887301299115803,0.07127150828765985
0.3294061994742595,0.5229710478757068,-0.14020122755149622,0.06067110014760384
0.3392008458068894,0.5102675320357603,-0.11756363130105021,0.050061848449363476
0.3392008458068894,0.4975567818473854,-0.126723127101337,0.03979849928598606
0.3352829872738374,0.4868065400830569,-0.13079517942473295,0.0302059823293847
0.3392008458068894,0.4780023380459186,-0.1220674451950462,0.021545135907577145
0.3451082418762568,0.4711658787812548,-0.11563842963929324,0.013987030072953936
0.3588207467419387,0.466275459243781,-0.1079841953041715,0.007599867845257594
0.3588207467419387,0.4633455481303537,-0.09817521022270699,0.0023499437512768512
0.374522789143936,0.4604084026684982,-0.08917758813611656,-0.0018844329311589966
0.3803995769435139,0.4565018545172618,-0.08052674102561697,-0.005289245913923121
0.3901942232761438,0.4535647090554062,-0.06866417678117834,-0.008085748307882397
0.4098141242111931,0.4496581609041697,-0.05105035474749689,-0.010500798993803679
0.4294034168764529,0.4477048868285516,-0.030230650643103332,-0.012740674918857595
0.4549001056110801,0.4457443784045051,-0.003337940526121264,-0.01497139304835565
0.4941092992113892,0.4418378302532686,0.035460147753903576,-0.01730728370513226
0.5392258888810657,0.437924047753604,0.08046612371311129,-0.019808227019159
0.5843118702809528,0.4340174996023676,0.12723884188261006,-0.02248469684370531
0.6353052477502072,0.4310875884889403,0.1783194926454862,-0.025308693859629014
0.6803912291500942,0.4271738059892756,0.2230331677674,-0.028227979260782774
0.7058879178847215,0.4242438948758483,0.24948820691982093,-0.031180860468751424
0.7215593520169293,0.4222906208002301,0.2661911617629381,-0.03410910376843466
0.7313846066193487,0.4193534753383746,0.27598875178295046,-0.036967217429853365
0.7215593520169293,0.4154469271871381,0.2649608325331925,-0.03972717545732595
0.6862680169496722,0.4125097817252826,0.233059999444156,-0.04237845613890753
0.6411820355497851,0.4105565076496644,0.18778398456767167,-0.04492395171118498
0.5843118702809528,0.4086032335740461,0.12623082285766798,-0.04737287026484072
0.5058934830803345,0.4066499594984279,0.05770600365742285,-0.049732213186548135
0.4549001056110801,0.4046894510743815,-0.001146028510134088,-0.05199869784087055
0.4039067281418257,0.4017595399609542,-0.050170560900941547,-0.05415297759450925
0.3588207467419387,0.3998062658853359,-0.08974645638252012,-0.05615761856902269
0.3352829872738374,0.3968691204234804,-0.1190935523160287,-0.05795957228841199
0.3098169068089997,0.3939392093100531,-0.14348227735491284,-0.05949698029044654
0.2901970058739504,0.3919859352344348,-0.15689878361799087,-0.06070925000581499
0.2941148644070023,0.3900326611588167,-0.15919818221802612,-0.061548645249788946
0.2901970058739504,0.3900326611588167,-0.16311120965695064,-0.061991303525108246
0.2843202180743724,0.3890487897725793,-0.1595986690007915,-0.06204570766798696
0.3098169068089997,0.3910092981966258,-0.14548564645042594,-0.06175716282511158
0.3039095107396323,0.392962572272244,-0.14459394497714556,-0.06120761418228666
0.2999916522065803,0.3939392093100531,-0.14779725603672803,-0.06051096546418471
0.3196115531416296,0.392962572272244,-0.1297785694593881,-0.0598046707184535
0.3392008458068894,0.392962572272244,-0.11177357897234429,-0.059238584963610896
0.3352829872738374,0.3919859352344348,-0.11110011476910289,-0.05896188199004102
0.3392008458068894,0.3900326611588167,-0.10741512021069423,-0.05910850418617935
0.3549028882088867,0.3890487897725793,-0.0985127963952047,-0.05978139375261688
0.3451082418762568,0.3880721527347702,-0.0963765807176234,-0.06103587308688651
0.3549028882088867,0.3870955156969611,-0.09591147520817997,-0.06286304951110477
0.3490261004093087,0.386118878659152,-0.09813242441550361,-0.06517490539192805
0.3392008458068894,0.3851422416213429,-0.10667737137619518,-0.06779353778228481
0.3352829872738374,0.3831889675457247,-0.11093535779385702,-0.0704474994518694
0.3392008458068894,0.3812284591216783,-0.11015215631419331,-0.07277807804134265
0.3294061994742595,0.37927518504606,-0.1129022026081515,-0.0743574847641482
0.3352829872738374,0.3782985480082509,-0.1144310676061882,-0.07471935256642878
0.3352829872738374,0.3773219109704418,-0.10829911413803281,-0.07339989432035961
0.3490261004093087,0.3782985480082509,-0.09762675515374747,-0.06998590092221066
0.3588207467419387,0.3812284591216783,-0.08761856722303213,-0.06416389176299357
0.3549028882088867,0.3880721527347702,-0.08763971583923054,-0.05576360864652467
0.3451082418762568,0.3978529918097178,-0.10475853380635435,-0.04478904677236166
0.3137347653420516,0.4125097817252826,-0.1269945129151775,-0.031431531456258856
0.3098169068089997,0.4301109514511312,-0.13717140554362037,-0.01606187212895793
0.3137347653420516,0.4506347979419788,-0.1329801000048084,0.0007980665430679905
0.3196115531416296,0.4711658787812548,-0.1208580962016737,0.018520617114005426
0.3352829872738374,0.4907130882342934,-0.11387565440148778,0.036427870258104456
0.3235294116746816,0.5073303865739046,-0.11789828949096891,0.05384959135245911
0.3294061994742595,0.5200411367622795,-0.11935659755907384,0.07017572768107622
0.3098169068089997,0.5337212896400352,-0.12668184087246417,0.08489737952737257
0.3098169068089997,0.54643203982841,-0.14329050598734747,0.09763259659368091
0.3294061994742595,0.5571822815927384,-0.11926457067802572,0.10813595396041159
0.3137347653420516,0.5650026122436396,-0.09984704332462217,0.11629303744120023
0.3196115531416296,0.5698930317811133,-0.1761180151540688,0.12210259332218447
0.274494963471953,0.5718463058567315,-0.1321945248296117,0.1256502659309151
0.7509738992846084,0.5718463058567315,0.32457939399682406,0.12707861070119003
1.503906727835743,0.5698930317811133,0.9663232818147746,0.12655833284621937
1.503906727835743,0.5679397577054951,1.2101634988683876,0.12426529382091044
1.407857977236391,0.5650026122436396,0.8028211581393587,0.120366653565598
0.4745200065461294,0.5610960640924031,0.14566898323753802,0.11501766616558698
0.3196115531416296,0.5562056445549294,-0.16697903155666927,0.10836842815859131
0.3451082418762568,0.5503385879796465,-0.11565222163262211,0.10057774564135794
0.3352829872738374,0.5435021287149827,-0.07705174767807876,0.09182969924575861
0.3392008458068894,0.5347051610262725,-0.12293013677355394,0.08234779662219065
0.3137347653420516,0.523947684913516,-0.1328264666240526,0.07240199357136272
0.3098169068089997,0.5122208061113784,-0.12756992579132376,0.06230531187675815
0.3137347653420516,0.4995100559230035,-0.13394910854248712,0.05239901294509483
0.3196115531416296,0.4887598141586752,-0.1298175330938141,0.043027805108781195
0.3137347653420516,0.4789862094321558,-0.12560447484615334,0.03450877179602459
0.3235294116746816,0.4711658787812548,-0.1259245982189326,0.027099102368240768
0.3235294116746816,0.4652988222059719,-0.121317936889129,0.0209680325072089
0.3294061994742595,0.4604084026684982,-0.1161734422580798,0.016177690985703926
0.3352829872738374,0.4584551285928799,-0.11096011391074484,0.012676047855984234
0.3451082418762568,0.4574784915550708,-0.1014473160969189,0.010303203284206808
0.3588207467419387,0.4565018545172618,-0.08775919285671994,0.008810205126295642
0.3803995769435139,0.4565018545172618,-0.06566157873257675,0.007887778902787157
0.4156909120107711,0.4565018545172618,-0.03211030183765897,0.007201068893387924
0.4549001056110801,0.4565018545172618,0.00806596037919058,0.006425868367027486
0.4999860870109672,0.4545485804416435,0.05287577754190824,0.005281874986372555
0.5548973230132735,0.4525880720175971,0.10661228169665184,0.0035591721617497453
0.6196032053482099,0.4496581609041697,0.17189854316860784,0.0011352666056264372
0.6901858754827241,0.4467282497907424,0.24230308650503002,-0.002018605957832261
0.7509738992846084,0.4418378302532686,0.3020329321614089,-0.00584179506541975
0.7901830928849176,0.4369474107157949,0.34115153304352996,-0.010197821473308775
0.8117619230864929,0.4320642255267494,0.36374047649523106,-0.01489492849899435
0.8215565694191228,0.4271738059892756,0.37106528705001757,-0.019710697608522044
0.8058851352869149,0.4232672578380392,0.35625939140953233,-0.024417652378409614
0.7666759416866058,0.4193534753383746,0.3177660073015302,-0.028807004973297926
0.7098057764177734,0.4154469271871381,0.2579052301815104,-0.03270822634918344
0.6293978516808398,0.4115331446874735,0.17947396535225826,-0.03600279107179638
0.5451026766806437,0.4086032335740461,0.0945731993427602,-0.03863114159549837
0.4745200065461294,0.407626596536237,0.02150560509141844,-0.04059260894604037
0.419608770543823,0.4066499594984279,-0.030312938963254422,-0.041938753282415704
0.3843174354765659,0.4066499594984279,-0.06935522848314057,-0.042761348702493006
0.3392008458068894,0.407626596536237,-0.11197646208145198,-0.04317693261349395
0.2999916522065803,0.407626596536237,-0.15491473640525397,-0.043310310122062726
0.274494963471953,0.407626596536237,-0.17602627159481798,-0.043279508621780066
0.2843202180743724,0.4086032335740461,-0.17199270257686694,-0.04318435748707922
0.2901970058739504,0.407626596536237,-0.16290065361028572,-0.04310016590493505
0.2941148644070023,0.407626596536237,-0.15962088240163702,-0.043077017386972845
0.2999916522065803,0.4066499594984279,-0.15637588700535182,-0.04314416215317427
0.3098169068089997,0.4056660881121906,-0.14553046278326442,-0.04331804955920947
0.3235294116746816,0.4056660881121906,-0.12980589341343174,-0.04361187932707184
0.3392008458068894,0.4046894510743815,-0.12131587840296004,-0.044044300592170106
0.3352829872738374,0.4046894510743815,-0.11767341011754394,-0.04464510594176396
0.3549028882088867,0.4056660881121906,-0.10383239239132441,-0.045456404603771476
0.3705743223410945,0.4056660881121906,-0.08707879199327219,-0.04652867081703841
0.374522789143936,0.4037128140365724,-0.0839095627647095,-0.04791203243353393
0.3705743223410945,0.4017595399609542,-0.08598429205204158,-0.049643956501217223
0.3803995769435139,0.3998062658853359,-0.08140602065573237,-0.051734966103800475
0.3803995769435139,0.3978529918097178,-0.07758715677997587,-0.054154222671598494
0.374522789143936,0.3958924833856713,-0.08363713750087402,-0.05681686416631794
0.3705743223410945,0.3939392093100531,-0.09571828897525317,-0.05957498098240229
0.3490261004093087,0.3910092981966258,-0.1028924742100262,-0.062214004530272315
0.3705743223410945,0.3900326611588167,-0.10081326456299405,-0.06445599707097623
0.3588207467419387,0.3890487897725793,-0.09461324062173818,-0.06597082056575869
0.3803995769435139,0.3890487897725793,-0.08723935271402608,-0.06639543826698266
0.3843174354765659,0.3900326611588167,-0.07721170249413908,-0.06536070020025596
0.3941120818091958,0.3919859352344348,-0.06715048765691121,-0.06252393056462754
0.4039067281418257,0.3958924833856713,-0.06466796344022585,-0.05760457286315241
0.3843174354765659,0.4027361769987633,-0.07402953785356012,-0.05041924183247075
0.3803995769435139,0.4125097817252826,-0.09106585185696174,-0.04091200854747908
0.3490261004093087,0.4232672578380392,-0.1101080841408205,-0.029175784881833065
0.3451082418762568,0.4359707736779858,-0.12587081082229656,-0.015461328990736262
0.3392008458068894,0.4525880720175971,-0.12460939361538952,-0.00017160819881502782
0.3646975345415166,0.4711658787812548,-0.10212387510941189,0.016159071702767414
0.3803995769435139,0.4887598141586752,-0.08918155646009045,0.032899790390665505
0.3588207467419387,0.5073303865739046,-0.1053370432657686,0.04936823301605558
0.3588207467419387,0.524924321951325,-0.11713613843432756,0.06488146524278793
0.3392008458068894,0.539588346215318,-0.11769855160001226,0.07880648019144007
0.3451082418762568,0.5513224593658839,-0.13465876217604086,0.09060482073095208
0.3549028882088867,0.560119427054594,-0.12092475832027388,0.09986660270346048
0.3549028882088867,0.5650026122436396,-0.08681542050560015,0.10633104238720745
0.3392008458068894,0.5659792492814486,-0.16496598827876738,0.10989276529651476
0.274494963471953,0.5659792492814486,-0.20075738014407707,0.11059527635892558
0.5843118702809528,0.5640259752058304,0.18490817900568612,0.10861454164577951
1.468615392768486,0.560119427054594,0.8585786575251773,0.10423634002540368
1.503906727835743,0.5552290075171202,1.1952281969363183,0.09783081496946519
1.503906727835743,0.5503385879796465,0.8877079090095733,0.08982670368014933
0.6764733706170423,0.5435021287149827,0.2865653929015381,0.08068644770409215
0.4294034168764529,0.5347051610262725,-0.06421612713500283,0.07088226676720444
0.4156909120107711,0.523947684913516,-0.08029396190509916,0.06087271993611441
0.3843174354765659,0.5122208061113784,-0.06612802544513868,0.05107949046903289
0.3588207467419387,0.5014633299986218,-0.12675818164191038,0.04186498029083401
0.3294061994742595,0.4926663623099116,-0.15114344843015654,0.03351234935800537
0.3392008458068894,0.4858226686968196,-0.13168646160374303,0.026210359220252655
0.3588207467419387,0.479962846469965,-0.11921464805543866,0.020045429830913623
0.3705743223410945,0.4750724269324912,-0.11304611696939759,0.01500265527436061
0.3646975345415166,0.4721425158190639,-0.10574248300557026,0.01097635398234854
0.3843174354765659,0.4701892417434457,-0.10067609691941806,0.007789335718986863
0.3803995769435139,0.4701892417434457,-0.09686136052324226,0.0052187048715285535
0.3901942232761438,0.4692053703572084,-0.08877951273838273,0.0030249201269753776
0.4039067281418257,0.4672520962815901,-0.07711337414859798,0.0009802346132897857
0.4156909120107711,0.4652988222059719,-0.06691171462971537,-0.0011072603759303085
0.4254855583434009,0.4623689110925446,-0.05097700161600864,-0.0033769444349683723
0.4607768934106581,0.459431765630689,-0.02630691008142596,-0.0059079338556480504
0.4706021480130775,0.4555252174794526,-0.006865870438099776,-0.00872034926267293
0.4941092992113892,0.451611434979788,0.008281102346588238,-0.011784196065308429
0.5156881294129645,0.4486815238663607,0.03607897138947817,-0.015033421962195717
0.5646919693459035,0.4457443784045051,0.07816871585951204,-0.01838222448956351
0.60980855901558,0.4428144672910778,0.12881249214458862,-0.021740790502821662
0.6705965828174644,0.4408611932154596,0.1852840757282986,-0.025028259639374727
0.7156825642173513,0.4389079191398414,0.2316797225628928,-0.028181609354771448
0.7411792529519786,0.4369474107157949,0.25619788600887883,-0.03116012095546141
0.7607991538870279,0.4340174996023676,0.275347588719114,-0.03394588784943957
0.7803884465522877,0.4320642255267494,0.29702661626693244,-0.0365413176048963
0.7862652343518657,0.4291270800648938,0.29614477452011084,-0.03896471723095845
0.7411792529519786,0.4271738059892756,0.25987033174749347,-0.041244912853632305
0.6960932715520916,0.4242438948758483,0.206334381442813,-0.04341557974304209
0.6353052477502072,0.4222906208002301,0.14903508921467992,-0.04550968285976315
0.5745172239483228,0.4213067494139927,0.08885357344234018,-0.047554254787424734
0.5196059879460164,0.4193534753383746,0.030049324599781126,-0.0495657194732586
0.46469475194371,0.4183768383005654,-0.021656848422706668,-0.051546083640908895
0.4254855583434009,0.4174002012627563,-0.06258459543394262,-0.053480467004846814
0.3999888696087737,0.4154469271871381,-0.08980352918577794,-0.05533650910635509
0.3803995769435139,0.4134864187630917,-0.10559358344480943,-0.057066091801093906
0.374522789143936,0.4115331446874735,-0.11725479348103146,-0.058609539558116236
0.3588207467419387,0.4105565076496644,-0.12807113093589162,-0.05990207937908255
0.3549028882088867,0.4105565076496644,-0.13512026036546634,-0.06088199243700611
0.3549028882088867,0.4105565076496644,-0.13564897524955197,-0.06149967586374922
0.3588207467419387,0.4115331446874735,-0.1287549946947371,-0.06172675307516109
0.374522789143936,0.4115331446874735,-0.11847489990905435,-0.06156432370062997
0.3705743223410945,0.4115331446874735,-0.11580722680691993,-0.06104931759871614
0.374522789143936,0.4105565076496644,-0.12043060311883272,-0.06025768491405657
0.3705743223410945,0.4105565076496644,-0.11575918031051859,-0.059302925892241454
0.3901942232761438,0.4105565076496644,-0.10239899214581384,-0.0583284667089945
0.3941120818091958,0.4125097817252826,-0.0981547548418203,-0.057492862808400054
0.3901942232761438,0.414470290149329,-0.09784962445233511,-0.05694787366598872
0.4039067281418257,0.4164235642249472,-0.0887036226570488,-0.056810986118717
0.4098141242111931,0.4183768383005654,-0.08310583472915693,-0.057135625094816914
0.3999888696087737,0.4183768383005654,-0.08795953401223107,-0.057883630184209625
0.4039067281418257,0.4183768383005654,-0.08989611385003721,-0.05890519985085776
0.4039067281418257,0.4183768383005654,-0.08858236626975163,-0.059931199766039334
0.3901942232761438,0.4183768383005654,-0.09701160848461678,-0.06058150138366122
0.3843174354765659,0.4193534753383746,-0.11398135967844042,-0.06039102306259517
0.3646975345415166,0.4193534753383746,-0.12031461209022196,-0.05885261769487888
0.3941120818091958,0.4203301123761837,-0.10309776014976164,-0.055473152161064306
0.4098141242111931,0.4222906208002301,-0.07833113268532439,-0.049836405692734835
0.4254855583434009,0.4261971689514665,-0.06811893390989275,-0.041664269308217636
0.4254855583434009,0.4359707736779858,-0.06768034581314718,-0.030866750013347974
0.4156909120107711,0.4506347979419788,-0.07020420177359078,-0.017571988044746877
0.4156909120107711,0.4692053703572084,-0.0864645273740859,-0.0021300653586584168
0.3705743223410945,0.4887598141586752,-0.10954299296698844,0.014911531821645091
0.3843174354765659,0.5102675320357603,-0.11652707114248245,0.03285818097386494
0.3803995769435139,0.531768015564417,-0.10641368308261188,0.05093712593364891
0.3999888696087737,0.5522990964036929,-0.09432657669462559,0.06837509376886633
0.3901942232761438,0.5689163947433042,-0.09730888120408386,0.08447309322129543
0.3803995769435139,0.5826037819694881,-0.11714478143899018,0.09866767686229619
0.3588207467419387,0.5923773866960075,-0.1297814442409896,0.11057055148297766
0.3451082418762568,0.598237208922862,-0.1373146637334538,0.11998239980686153
0.3705743223410945,0.6021509914225267,-0.14220473103545656,0.12688132371385097
0.3646975345415166,0.604104265498145,-0.10569600741634726,0.13139051615759292
0.3843174354765659,0.605080902535954,-0.10424021985626024,0.1337328045756407
0.3039095107396323,0.6060575395737632,-0.2195010306682961,0.134181064497361
0.2901970058739504,0.6060575395737632,-0.15671257838200242,0.13301306065167942
0.8960877063564784,0.6060575395737632,0.3817899166679384,0.13047731539175078
1.503906727835743,0.604104265498145,1.0029575511786635,0.12677370692238965
1.503906727835743,0.6001977173469085,1.0544769273560304,0.12204936363948765
1.0921642826278133,0.5962839348472438,0.5465435537896853,0.11640767842592825
0.4901914406783372,0.590416878271961,0.05414470856906378,0.10992633253489793
0.4254855583434009,0.5835804190072973,-0.09680885212610985,0.10267925373547215
0.4039067281418257,0.5747834513185871,-0.07942867188964081,0.0947574132085143
0.3803995769435139,0.566963120667686,-0.09615822003774549,0.08628415199423153
0.374522789143936,0.5581589186305476,-0.12719713736338528,0.07742209833070386
0.3549028882088867,0.5474086768662192,-0.12894661419762113,0.0683704309653807
0.3705743223410945,0.5366584351018908,-0.11394732777482053,0.059353022228276923
0.3999888696087737,0.5268848303753715,-0.09129282190184464,0.05059963492262888
0.4156909120107711,0.5180806283382331,-0.07281111950775374,0.042323587745738384
0.4254855583434009,0.5102675320357603,-0.056009637773291196,0.0346998866933179
0.4607768934106581,0.5034238384226682,-0.030711122296355427,0.0278476220083504
0.4706021480130775,0.4975567818473854,-0.014736196569689983,0.02181952999786881
0.4706021480130775,0.494626870733958,-0.012956085734625773,0.016600233901805275
0.4843146528787593,0.4916897252721025,-0.003547485306436397,0.012113082460798372
0.4999860870109672,0.487783177120866,0.015021440588231285,0.008234007906792627
0.5156881294129645,0.4848460316590105,0.03232648731575015,0.004809744476022017
0.5353080303480138,0.4819161205455832,0.04990905096280909,0.0016773059084563995
0.5548973230132735,0.4780023380459186,0.07049804250634248,-0.0013181624180159887
0.5803940117479008,0.4740957898946821,0.09780489477360504,-0.0043093200139932095
0.615685346815158,0.4701892417434457,0.13294891991277172,-0.0073975268657494415
0.654894540415467,0.466275459243781,0.16958621872013885,-0.010648848727071544
0.6901858754827241,0.4633455481303537,0.21140748806876736,-0.014094498230487954
0.7450971114850305,0.459431765630689,0.261003158155895,-0.017734547293774213
0.7803884465522877,0.4555252174794526,0.2994018650778934,-0.021543599699319804
0.800008347487337,0.451611434979788,0.3192354934283774,-0.025477219805273645
0.8156797816195448,0.4477048868285516,0.3361032097597306,-0.029478163135126478
0.8255050362219641,0.4437911043288869,0.3435883698521496,-0.03348177139943998
0.796090488954285,0.4398845561776505,0.3187918132189593,-0.03742023218836341
0.7509738992846084,0.4369474107157949,0.2698879770200084,-0.04122571765891378
0.6960932715520916,0.4330408625645585,0.21975662295733034,-0.04483265587835249
0.6450998940828371,0.4291270800648938,0.1651734855565594,-0.04817950237809089
0.5745172239483228,0.4252205319136574,0.09794690803755447,-0.0512103401972272
0.5098113416133866,0.4222906208002301,0.03310623947272835,-0.05387647952571637
0.4607768934106581,0.4203301123761837,-0.016387126656416385,-0.05613805968228248
0.419608770543823,0.4193534753383746,-0.055797500281515006,-0.057965586457834575
0.3901942232761438,0.4174002012627563,-0.08589862666059127,-0.05934138678040223
0.3705743223410945,0.4164235642249472,-0.10264162539621843,-0.06026104371522437
0.3646975345415166,0.4154469271871381,-0.11200381313922439,-0.0607348801370876
0.3549028882088867,0.4154469271871381,-0.1173495184494344,-0.060789457730382836
0.3549028882088867,0.4154469271871381,-0.1173461420451339,-0.060468903912139785
0.3588207467419387,0.4154469271871381,-0.1171331110774814,-0.05983574521278364
0.3549028882088867,0.4174002012627563,-0.11395850310618325,-0.05897085030569798
0.3705743223410945,0.4183768383005654,-0.10169665396390297,-0.05797207281617119
0.3803995769435139,0.4183768383005654,-0.09268442013429996,-0.056951205898849194
0.374522789143936,0.4183768383005654,-0.09316897815592032,-0.05602886891591311
0.3803995769435139,0.4174002012627563,-0.09058834599576385,-0.05532693154298535
0.3843174354765659,0.4174002012627563,-0.0854258677516196,-0.054958135259127516
0.3843174354765659,0.4174002012627563,-0.08437831951466633,-0.0550128572037436
0.3843174354765659,0.4183768383005654,-0.08174605436754444,-0.05554357800273201
0.3901942232761438,0.4183768383005654,-0.08098315007507513,-0.056548495674980215
0.374522789143936,0.4174002012627563,-0.08934761674858051,-0.05795662587349397
0.3705743223410945,0.4164235642249472,-0.09714305736115272,-0.05961732025121593
0.3646975345415166,0.414470290149329,-0.10094351202261355,-0.06129716996596968
0.3549028882088867,0.4134864187630917,-0.11113383349969,-0.06268666385283042
0.3392008458068894,0.4125097817252826,-0.1229236341518337,-0.06341782461095678
0.3490261004093087,0.4115331446874735,-0.11909606861175993,-0.06309252028188458
0.3588207467419387,0.4125097817252826,-0.10075564734439096,-0.06131944250968164
0.374522789143936,0.414470290149329,-0.0898697725676017,-0.057756085250076326
0.3705743223410945,0.4174002012627563,-0.09443079199121222,-0.05215070848526467
0.3588207467419387,0.4222906208002301,-0.09702196870394961,-0.0443785042549186
0.3705743223410945,0.4310875884889403,-0.0965299599573394,-0.03446625384096614
0.3451082418762568,0.4437911043288869,-0.11286982633702392,-0.022600877234292632
0.3196115531416296,0.4604084026684982,-0.13921695847783963,-0.009119468429189327
0.3137347653420516,0.4780023380459186,-0.14898706387363408,0.005518594536310866
0.3196115531416296,0.4965801448095762,-0.13608360916595458,0.020773713728557325
0.3451082418762568,0.5112441690735693,-0.11637402014263684,0.036076046064145974
0.3392008458068894,0.524924321951325,-0.11395151749434976,0.050875933006025754
0.3352829872738374,0.5376350721396999,-0.12842358467599527,0.06468769585754762
0.3196115531416296,0.5503385879796465,-0.1331992655316229,0.07712136359745202
0.3098169068089997,0.560119427054594,-0.14005560580942783,0.08789927727285403
0.3196115531416296,0.566963120667686,-0.1539550331121818,0.09685707181731879
0.3098169068089997,0.5718463058567315,-0.12898875949545008,0.10393092547643087
0.3098169068089997,0.5757600883563961,-0.13634566058642167,0.10913494665513838
0.2549056708066933,0.5777133624320144,-0.24203983086441994,0.11253387624753268
0.2490288830071153,0.5786899994698235,-0.14544961542634618,0.11421667880712576
0.9156769990217384,0.5786899994698235,0.42191084405622614,0.11427598675786944
1.503906727835743,0.5786899994698235,1.0515181531854234,0.11279685942513226
1.503906727835743,0.5767367253942053,1.0930155204131595,0.10985620131443377
1.0509655514911889,0.5737995799323498,0.5343987230964453,0.10553184811703845
0.3646975345415166,0.5698930317811133,-0.024185232889265135,0.09991822562652147
0.3039095107396323,0.5640259752058304,-0.17993227504488676,0.09314402367346164
0.3294061994742595,0.5571822815927384,-0.12175347969366365,0.08538678179360508
0.3039095107396323,0.5483853139040282,-0.12622348336607983,0.07687977086088744
0.2999916522065803,0.5376350721396999,-0.16460281822722847,0.06790802244229081
0.2843202180743724,0.5259009589891341,-0.16188471275104735,0.05879257312275594
0.2901970058739504,0.5141740801869966,-0.15116205257679577,0.04986454143808975
0.3098169068089997,0.5034238384226682,-0.1446690840726205,0.041432993059370524
0.3137347653420516,0.494626870733958,-0.13166406198230504,0.033752118103905396
0.3235294116746816,0.487783177120866,-0.12037148132357205,0.026993646774868277
0.3352829872738374,0.4828927575833923,-0.11473531864993412,0.021229563546104266
0.3352829872738374,0.479962846469965,-0.10954279246969398,0.016428264616757785
0.3451082418762568,0.4770257010081094,-0.0982668849048842,0.012464801045187136
0.3646975345415166,0.4750724269324912,-0.08327710231978673,0.009143326923440815
0.374522789143936,0.473119152856873,-0.06986566517714994,0.0062278430949277925
0.3901942232761438,0.4711658787812548,-0.0507252798125241,0.0034761394632202513
0.4254855583434009,0.4672520962815901,-0.02362288236048204,0.0006716345812622938
0.4451054592784502,0.4633455481303537,0.004794083732412654,-0.002351452494566188
0.4803967943457073,0.4584551285928799,0.03808019619260143,-0.005692690666098578
0.5254827757455944,0.4535647090554062,0.07765830976731106,-0.009381011130306953
0.5548973230132735,0.4486815238663607,0.11919201262536695,-0.013380631388400892
0.6196032053482099,0.4437911043288869,0.17067019390979385,-0.017605177175842517
0.6705965828174644,0.4389079191398414,0.23345862232919912,-0.021936882986592673
0.7254772105499813,0.4340174996023676,0.2823753020627893,-0.02624738715304277
0.7450971114850305,0.4301109514511312,0.30104284863924424,-0.030416825948479685
0.7411792529519786,0.4261971689514665,0.30602630328693625,-0.034348568234470384
0.7548917578176605,0.4222906208002301,0.3075430756322517,-0.037977882898641284
0.7254772105499813,0.4193534753383746,0.2898923492623956,-0.04127394013434609
0.6901858754827241,0.4174002012627563,0.24672457267237208,-0.04423566004472882
0.6254799931477878,0.4154469271871381,0.18833273327137215,-0.04688290200782572
0.5646919693459035,0.4134864187630917,0.12079870521119669,-0.049245202669970324
0.4843146528787593,0.4115331446874735,0.05000660205360932,-0.05135058162394295
0.4294034168764529,0.4086032335740461,-0.015305732096182743,-0.05321674889799006
0.3646975345415166,0.4066499594984279,-0.0706055270374751,-0.05484638808660652
0.3294061994742595,0.4037128140365724,-0.1114226954204745,-0.056227204343986835
0.3039095107396323,0.4017595399609542,-0.13500324450047257,-0.05733635195438406
0.2901970058739504,0.3998062658853359,-0.14732603942263242,-0.058147937951852254
0.2843202180743724,0.3988296288475269,-0.15543495083082426,-0.05864173562842854
0.2784434302747945,0.3988296288475269,-0.15987073976555896,-0.058811150685474406
0.274494963471953,0.3998062658853359,-0.16181527707047635,-0.05866887040647253
0.2784434302747945,0.4017595399609542,-0.1635602227519213,-0.05824937609035238
0.274494963471953,0.4037128140365724,-0.15936534161631985,-0.05760838083232034
0.2941148644070023,0.4046894510743815,-0.14631742002543627,-0.0568199738436787
0.3039095107396323,0.4037128140365724,-0.13413547612994314,-0.05597254606638282
0.3098169068089997,0.4037128140365724,-0.1260495437234324,-0.055164334706494025
0.3235294116746816,0.4027361769987633,-0.11618156242765926,-0.05449879218086234
0.3294061994742595,0.4027361769987633,-0.10722496045530368,-0.05407928384851547
0.3352829872738374,0.4017595399609542,-0.10296618714693773,-0.05400219029923986
0.3352829872738374,0.400782902923145,-0.10125824938875297,-0.054347532385226514
0.3352829872738374,0.400782902923145,-0.10419354516913844,-0.055166773741755895
0.3235294116746816,0.4017595399609542,-0.1121030295057916,-0.05646838251759959
0.3196115531416296,0.400782902923145,-0.11933969717212857,-0.05820284403567685
0.3098169068089997,0.3998062658853359,-0.1271870743185269,-0.06024979527697644
0.2999916522065803,0.3978529918097178,-0.1380664510500808,-0.06241045057149301
0.2941148644070023,0.3958924833856713,-0.14327334181165746,-0.06440827463771447
0.2999916522065803,0.3939392093100531,-0.13761783109905934,-0.06589992423263595
0.3098169068089997,0.3919859352344348,-0.12896995882054707,-0.06649700175601699
0.3137347653420516,0.3919859352344348,-0.12263465640924938,-0.06579741998170534
0.3235294116746816,0.392962572272244,-0.1157257403485377,-0.06342347767756384
0.3294061994742595,0.3958924833856713,-0.10845274374960744,-0.05906239111980917
0.3294061994742595,0.4027361769987633,-0.10748293436249334,-0.05250425692657564
0.3235294116746816,0.4105565076496644,-0.11728900079941983,-0.043672378438715735
0.3039095107396323,0.4203301123761837,-0.1316112800736872,-0.03264159148385934
0.3039095107396323,0.4330408625645585,-0.13676797397580523,-0.019641588601569875
0.3137347653420516,0.4496581609041697,-0.12430882792263877,-0.005044124020760632
0.3352829872738374,0.4682287333193992,-0.10288954803633193,0.010664786898308885
0.3451082418762568,0.4868065400830569,-0.09515822590909069,0.026924265602266094
0.3352829872738374,0.5044004754604773,-0.1016483890167727,0.04314426247596609
0.3490261004093087,0.5200411367622795,-0.09676024428169817,0.0587512604603857
0.3294061994742595,0.5337212896400352,-0.09618320422890682,0.07322795843234269
0.3392008458068894,0.545455402790601,-0.11832944475326249,0.08614233422467352
0.3294061994742595,0.5542523704793112,-0.10348787558917781,0.09716372320252775
0.3392008458068894,0.5620727011302122,-0.08359349620511161,0.10606605063332376
0.2999916522065803,0.566963120667686,-0.17412288907059423,0.1127205912041455
0.2549056708066933,0.5698930317811133,-0.17178743520776873,0.11708218029101528
0.6607713282150449,0.5708696688189224,0.26595360887107194,0.11917342218172253
1.503906727835743,0.5718463058567315,0.9428216987576358,0.11907105442423199
1.503906727835743,0.5718463058567315,1.233080184471032,0.11689731749544079
1.45686181716933,0.5698930317811133,0.8435114474865721,0.11281720952287798
0.5058934830803345,0.566963120667686,0.18371626928731688,0.10704034099880086
0.3490261004093087,0.5610960640924031,-0.13580459556564703,0.09982432210470027
0.3646975345415166,0.5542523704793112,-0.09367217879461455,0.09147572279795953
0.3451082418762568,0.5435021287149827,-0.0672107437031883,0.08234491612187597
0.3352829872738374,0.531768015564417,-0.12143671552630932,0.07281251362540732
0.3196115531416296,0.5200411367622795,-0.13038950481183303,0.06326728496486753
0.3098169068089997,0.5073303865739046,-0.12087668820706847,0.054077834707830695
0.3294061994742595,0.4985334188851945,-0.12296844832907629,0.04556221359727646
0.3352829872738374,0.4926663623099116,-0.10758061219821059,0.037960523841070404
0.3549028882088867,0.4868065400830569,-0.08891407145062251,0.03141521653685531
0.3588207467419387,0.4819161205455832,-0.08590428326957236,0.02596236295338703
0.3646975345415166,0.4780023380459186,-0.08343348699612263,0.02153520338381952
0.374522789143936,0.4760490639703003,-0.06867036762528261,0.0179792614834485
0.3941120818091958,0.4750724269324912,-0.05130683489220951,0.01507660157911336
0.4098141242111931,0.473119152856873,-0.043041514525893075,0.01257558537218554
0.4039067281418257,0.4701892417434457,-0.032630427612866934,0.010221894140087411
0.4490233178115022,0.4682287333193992,-0.008771825072286535,0.0077867180926301455
0.4607768934106581,0.4643221851681628,0.019761729037266394,0.005088822659067604
0.4999860870109672,0.4604084026684982,0.04989016932440424,0.0020084557160592277
0.5353080303480138,0.4565018545172618,0.08622724619568584,-0.0015075437248314577
0.5745172239483228,0.4525880720175971,0.12578665583460164,-0.005448813589028239
0.615685346815158,0.4486815238663607,0.1683866233147973,-0.00975116078162004
0.6705965828174644,0.4437911043288869,0.2174663073630354,-0.014310799314412908
0.7156825642173513,0.4398845561776505,0.26807894663071774,-0.019000894054880577
0.7548917578176605,0.4349941366401767,0.30549409165253416,-0.0236882684009763
0.7764705880192357,0.4301109514511312,0.3201055926508649,-0.02824840367911821
0.7666759416866058,0.4261971689514665,0.3232937275139669,-0.03257724367601676
0.7803884465522877,0.4222906208002301,0.32141966696429436,-0.036598797635684396
0.7411792529519786,0.4193534753383746,0.293796464106385,-0.040268100597216125
0.6901858754827241,0.4164235642249472,0.23475259370637175,-0.043569708268630214
0.6196032053482099,0.414470290149329,0.16882995150386362,-0.04651249616256808
0.5607741108128516,0.4115331446874735,0.10569030143689999,-0.04912199678434424
0.4941092992113892,0.4095798706118552,0.04068380016604168,-0.05143176027134039
0.4392286714788723,0.4086032335740461,-0.014311487833811917,-0.05347523124802214
0.4039067281418257,0.4066499594984279,-0.051264755181499796,-0.05527942072770372
0.374522789143936,0.4037128140365724,-0.0816873505490853,-0.05686126138158288
0.3451082418762568,0.4027361769987633,-0.10775809709159107,-0.05822701836508406
0.3392008458068894,0.4017595399609542,-0.1199876123816804,-0.059374579063132905
0.3294061994742595,0.400782902923145,-0.12451499553010087,-0.0602980010032395
0.3235294116746816,0.400782902923145,-0.1339218550748522,-0.06099345412621301
0.3196115531416296,0.400782902923145,-0.13981501322331585,-0.06146564177138149
0.3235294116746816,0.4017595399609542,-0.12941819194930432,-0.06173384324634236
0.3490261004093087,0.400782902923145,-0.11431374800734986,-0.06183679720756421
0.3490261004093087,0.400782902923145,-0.10686341802921011,-0.06183566538107161
0.3588207467419387,0.400782902923145,-0.09873953016229067,-0.0618142631485734
0.374522789143936,0.3998062658853359,-0.08897890505478731,-0.06187568788657151
0.3705743223410945,0.3988296288475269,-0.08536550998762692,-0.06213454232086487
0.3803995769435139,0.3978529918097178,-0.08178678667125819,-0.06270425050191049
0.3843174354765659,0.3978529918097178,-0.07558059170419025,-0.06367956787846461
0.3901942232761438,0.3968691204234804,-0.07242360327770894,-0.06511530334050747
0.3901942232761438,0.3968691204234804,-0.06811618747613574,-0.06700340212338339
0.3999888696087737,0.3968691204234804,-0.06594729100443547,-0.06925165845223008
0.3803995769435139,0.3958924833856713,-0.07803051041462003,-0.0716681315183125
0.374522789143936,0.3949158463478622,-0.09230636394113646,-0.07395552602762746
0.3646975345415166,0.3939392093100531,-0.09334996094755924,-0.07571915179589149
0.374522789143936,0.392962572272244,-0.09427249715106746,-0.0764905407636654
0.3646975345415166,0.3919859352344348,-0.09618727777781565,-0.0757665198660034
0.3843174354765659,0.392962572272244,-0.07984447124585953,-0.07306084061233105
0.4039067281418257,0.3958924833856713,-0.061886088521052804,-0.06796281238153143
0.3999888696087737,0.400782902923145,-0.06661845421901627,-0.060195305335115794
0.3901942232761438,0.4095798706118552,-0.07092764616771008,-0.049663472472550464
0.4039067281418257,0.4222906208002301,-0.06568334846517646,-0.036485936833607346
0.3843174354765659,0.4389079191398414,-0.08231933578674043,-0.021002125503624475
0.3490261004093087,0.459431765630689,-0.11359466311613066,-0.0037527445179548987
0.3490261004093087,0.4819161205455832,-0.1222335131188833,0.014565414600786739
0.3549028882088867,0.5034238384226682,-0.11009297938117169,0.03316484038879253
0.3705743223410945,0.524924321951325,-0.09898397678849727,0.05124381930252992
0.3646975345415166,0.5435021287149827,-0.09886159362447437,0.06806310899219459
0.3705743223410945,0.5591427900167849,-0.10556408340514643,0.08301176759625259
0.3549028882088867,0.5689163947433042,-0.10831323137678901,0.09565312280254079
0.3392008458068894,0.5757600883563961,-0.12432594430494319,0.10574544931032537
0.3451082418762568,0.5806432735454417,-0.1434439058158075,0.11323638532766632
0.3392008458068894,0.5835804190072973,-0.11175918423080164,0.11823451462021191
0.3451082418762568,0.5855336930829155,-0.11836773760081097,0.12096496353398886
0.2784434302747945,0.5865103301207246,-0.23650425554161122,0.12171772830186357
0.2686181756723751,0.5855336930829155,-0.13680262403039045,0.12079762220735216
0.9705882350240448,0.5835804190072973,0.44713261318772396,0.11848344827941405
1.503906727835743,0.5816199105832508,1.0516097730985665,0.11500168276969212
1.503906727835743,0.5786899994698235,1.0458460655472481,0.1105170544977073
1.027458400292877,0.5757600883563961,0.5213734005114485,0.10513935851543643
0.4901914406783372,0.5718463058567315,0.05761957845629952,0.09894307307059554
0.4254855583434009,0.5659792492814486,-0.0753219772849712,0.09199426890286225
0.3999888696087737,0.560119427054594,-0.06421457176441822,0.08437824667743625
0.374522789143936,0.553275733441502,-0.09187756727643066,0.07622148847615709
0.3490261004093087,0.5435021287149827,-0.13261914127831007,0.06770284038541131
0.3352829872738374,0.531768015564417,-0.13733726634197907,0.05905115100551214
0.3451082418762568,0.5200411367622795,-0.1204326410523463,0.05052949045539454
0.374522789143936,0.5102675320357603,-0.11058173986944547,0.042408977822756974
0.3490261004093087,0.5024472013848591,-0.11719932291502434,0.03493744769973429
0.3588207467419387,0.4956035077717671,-0.11732506350653008,0.028309129367870396
0.374522789143936,0.4916897252721025,-0.10154721071769605,0.022641029745249387
0.3803995769435139,0.4897364511964843,-0.09280532575954224,0.017960057749039398
0.3843174354765659,0.4868065400830569,-0.09079146186022971,0.014202618983519863
0.3941120818091958,0.4848460316590105,-0.0800987478492318,0.011226038595587297
0.4098141242111931,0.4838693946212014,-0.0680062801090268,0.008829245976619497
0.4156909120107711,0.4819161205455832,-0.05640500357395085,0.006778972727719697
0.4392286714788723,0.4809394835077741,-0.03743776245345526,0.004837334249777179
0.4607768934106581,0.4780023380459186,-0.016859361948194748,0.0027870004707848256
0.4803967943457073,0.4740957898946821,0.007990623545253138,0.0004510613073813721
0.5254827757455944,0.4711658787812548,0.04788983724748582,-0.002294059042856464
0.5705993654152709,0.4672520962815901,0.09335415928583676,-0.005512975635751836
0.60980855901558,0.4633455481303537,0.13638886952069593,-0.009212264964554509
0.6607713282150449,0.4604084026684982,0.1827599841167071,-0.013346543132776379
0.7000111300851435,0.4565018545172618,0.22358372244581703,-0.017828097990594944
0.7215593520169293,0.451611434979788,0.24641217490624254,-0.022538589498228657
0.7353024651524006,0.4477048868285516,0.25744924230200356,-0.02734159232618943
0.7353024651524006,0.4428144672910778,0.2601831838640251,-0.03209500278963632
0.7254772105499813,0.437924047753604,0.24687217153622928,-0.03666250134095205
0.6901858754827241,0.4340174996023676,0.2162349584998346,-0.040923363305858204
0.6509766818824151,0.4301109514511312,0.17153314345027465,-0.044779991363258075
0.5901886580805307,0.4252205319136574,0.11551816340024884,-0.04816265750366538
0.5353080303480138,0.4232672578380392,0.05728331004506162,-0.051031137471192665
0.4803967943457073,0.4213067494139927,0.004671008532254991,-0.053373236729565565
0.4352802046760309,0.4213067494139927,-0.042670455468497966,-0.05520065802455715
0.3941120818091958,0.4203301123761837,-0.08158932115804775,-0.05654317613728163
0.3705743223410945,0.4203301123761837,-0.10673270257397308,-0.05744248547607496
0.3549028882088867,0.4193534753383746,-0.12148796240793391,-0.0579471685748352
0.3490261004093087,0.4183768383005654,-0.12893649945522026,-0.058109904436915875
0.3451082418762568,0.4183768383005654,-0.1285398709023501,-0.05798736724181749
0.3549028882088867,0.4183768383005654,-0.12608600875726214,-0.05764245690370184
0.3490261004093087,0.4183768383005654,-0.12342204891578268,-0.05714778126212794
0.3646975345415166,0.4183768383005654,-0.11445629780574917,-0.056588839375519485
0.3705743223410945,0.4193534753383746,-0.10454762817209048,-0.056065208778113426
0.374522789143936,0.4193534753383746,-0.10296558908193172,-0.055688226944911115
0.3705743223410945,0.4193534753383746,-0.1041885786333852,-0.055574147959342325
0.374522789143936,0.4193534753383746,-0.10299741224723488,-0.05583247851722093
0.374522789143936,0.4193534753383746,-0.10123800066275679,-0.05655005846516171
0.3803995769435139,0.4183768383005654,-0.09506043242386414,-0.05777235002892224
0.3901942232761438,0.4174002012627563,-0.08581417814967197,-0.05948422147986761
0.3941120818091958,0.4164235642249472,-0.08250730271998163,-0.06159312116467061
0.3941120818091958,0.414470290149329,-0.08045784947189896,-0.06391781062123744
0.3999888696087737,0.4134864187630917,-0.0749170508549022,-0.06618566690962316
0.3999888696087737,0.4115331446874735,-0.07757997450146953,-0.06804091948534552
0.3843174354765659,0.4115331446874735,-0.0890809102201309,-0.06906505338527905
0.374522789143936,0.4105565076496644,-0.09881912207850548,-0.06880905500652232
0.374522789143936,0.4115331446874735,-0.1054943984683712,-0.06683534313317473
0.3705743223410945,0.4134864187630917,-0.09862165694016223,-0.0627653438219428
0.4039067281418257,0.4174002012627563,-0.07182653055086491,-0.05632704919830194
0.4254855583434009,0.4242438948758483,-0.05268999960237722,-0.04739592137843607
0.4098141242111931,0.4340174996023676,-0.05827646062439384,-0.0360225179589204
0.4039067281418257,0.4477048868285516,-0.07308291495205779,-0.022441456916774093
0.3843174354765659,0.466275459243781,-0.09120980024581456,-0.007058816742723338
0.3549028882088867,0.487783177120866,-0.11291093810124708,0.009581512014480157
0.3549028882088867,0.5092836606495229,-0.12391206092346342,0.026848281103263805
0.3549028882088867,0.5278614674131806,-0.11512569949706002,0.04408276502350295
0.374522789143936,0.5425254916771737,-0.09791042903140733,0.060659018583811425
0.3803995769435139,0.5571822815927384,-0.09322059037652045,0.07603572840080948
0.374522789143936,0.5698930317811133,-0.09752128030902889,0.0897928915435499
0.3803995769435139,0.5796666365076326,-0.0923280458029821,0.10164962471555294
0.3646975345415166,0.5884636041963428,-0.09996846182001796,0.11146272425736209
0.3705743223410945,0.5953072978094348,-0.11541644853790073,0.11920855070012434
0.3843174354765659,0.6001977173469085,-0.0756729107408429,0.1249530382052503
0.3999888696087737,0.6021509914225267,-0.05919507362553322,0.12881594760925688
0.3490261004093087,0.6031276284603359,-0.16211479418503705,0.13093583846826334
0.3196115531416296,0.604104265498145,-0.10164264997839018,0.1314416470599731
0.9058823526891084,0.604104265498145,0.41182027955580824,0.13043528078229574
1.503906727835743,0.6031276284603359,1.0151009625838923,0.12798743397293222
1.503906727835743,0.6011743543847177,1.0918882044864846,0.12414623485295974
1.1568701649627495,0.598237208922862,0.6129527836229225,0.11895582943067351
0.5098113416133866,0.5933540237338165,0.10728876766657278,0.11248008385029439
0.4451054592784502,0.5865103301207246,-0.05935893697611029,0.10482561919461816
0.4352802046760309,0.5767367253942053,-0.029388751852873554,0.09615858438609957
0.4156909120107711,0.5659792492814486,-0.03919858259933963,0.08671089874455651
0.3941120818091958,0.5552290075171202,-0.08269093177050227,0.07677387471725138
0.3646975345415166,0.5425254916771737,-0.10332220690035954,0.06667968323895317
0.3549028882088867,0.5307913785266078,-0.10643030035165318,0.05677351675235061
0.3803995769435139,0.5200411367622795,-0.08712207696308463,0.04738108788833537
0.4039067281418257,0.5102675320357603,-0.06700170277096669,0.03877695884676705
